energy,prior,fidelity,mass,psnr,ssim_indices
209378.7832366408,209378.7832366408,0.0,0.0,16.47713354124693,0.19255925292838885
206922.56018221512,206921.56767512797,0.9925070871464303,-0.2713725618086755,16.54964586568719,0.19428060641829117
204483.99782035602,204480.04252877508,3.955291580920258,-0.5542990561225452,16.622324550659666,0.19601646068445966
202063.37695785344,202054.51131790486,8.865639948583505,-0.8472467880346812,16.695166572288997,0.1977669692077233
199661.02384365516,199645.32374154136,15.7001021137998,-1.1467037160182372,16.768169119411414,0.19953240429069544
197277.33332658812,197252.89947004855,24.433856539582035,-1.4269771474064328,16.84132968399514,0.2013128582230568
194912.43978635542,194877.39824128282,35.0415450725889,-1.6978176072007045,16.91464408967611,0.20310802894217517
192566.5500128344,192519.0525037741,47.497509060297546,-1.9619957418763079,16.988110562327247,0.20491804783439127
190239.90669827067,190178.1312567025,61.77544156817089,-2.2168639717274345,17.061725118393927,0.20674275293103098
187932.6515501256,187854.80345756808,77.84809255750947,-2.4433018697309308,17.135485570896506,0.2085824317785938
185645.00366878594,185549.3163789477,95.68728983824987,-2.6647324355435558,17.20938728694028,0.21043680687457453
183377.1191906192,183261.8546819221,115.26450869710686,-2.853738496778533,17.283428707801562,0.21230643158831808
181129.12138181756,180992.57085305513,136.550528762421,-3.0020713646081276,17.35760408465517,0.21419099909837955
178901.13262694675,178741.6152200516,159.517406895132,-3.116688594513107,17.43191100352047,0.21609070183594717
176693.2381344877,176509.10425607648,184.13387841121653,-3.2204119476373307,17.506345874813903,0.2180054175213134
174505.5328132258,174295.16120780626,210.37160541951718,-3.3402669976931065,17.580904710484692,0.21993519931022765
172338.1030542025,172099.90368417662,238.19937002588776,-3.4736717175110243,17.65558220998839,0.22187995689710246
170190.86475659942,169923.27792734854,267.5868292508924,-3.6056810602312908,17.730374986652386,0.22383964363262962
168064.06851261205,167765.5654911609,298.50302145115677,-3.7304161422071047,17.805277688858318,0.22581408016627316
165957.82227944242,165626.9085839319,330.91369551054237,-3.853894278698135,17.880289400392904,0.22780412612465648
163872.09908630126,163507.30979446624,364.7892918350066,-3.9670715422253124,17.955407006004375,0.2298095872078253
161806.8560389671,161406.75775739353,400.09828157356645,-4.074340135965031,18.03062870041503,0.23183054207464449
159762.1962665463,159325.3869579678,436.80930857849637,-4.177846284932457,18.105947544929208,0.2338663376794452
157738.16977119126,157263.28015840825,474.88961278299485,-4.26384020986734,18.18136012886003,0.235917191860788
155734.75644153747,155220.45167208632,514.3047694511532,-4.35596753313439,18.256860360539115,0.23798335681472205
153751.83433357475,153196.8089702815,555.0253632932394,-4.427597451664042,18.332444389093958,0.24006468545575463
151789.5887988656,151192.57022815026,597.0185707153184,-4.472164066799451,18.408105331851484,0.24216127139138244
149847.87681144953,149207.62411945534,640.2526919941763,-4.472301875357516,18.483840735296347,0.244273379873614
147926.7354613703,147242.04042474844,684.6950366218397,-4.472487005288713,18.559643031708546,0.2464006062154257
146026.23379388917,145295.92225569361,730.3115381955431,-4.436543707794044,18.635508767354242,0.2485430215624298
144146.3260909781,143369.25739245498,777.0686985231173,-4.397275233990513,18.71143261961879,0.2506998155482793
142287.04195273377,141462.10820247245,824.9337502613188,-4.341041552834213,18.787412244039523,0.2528719447903626
140448.24250633887,139574.3701507624,873.872355576471,-4.307249734527431,18.863442933296536,0.25505895306863274
138629.85268476102,137705.99740661378,923.8552781472272,-4.251766261062585,18.9395220522361,0.2572611608277069
136831.80701903426,135856.9580918202,974.8489272140398,-4.229627198481467,19.015645203143784,0.25947853594868514
135054.04950708136,134027.226246614,1026.8232604673533,-4.1916882620425895,19.091804147086663,0.2617114842169334
133296.43481072804,132216.6906657552,1079.7441449728624,-4.163323259912431,19.167993267521886,0.26395952694097957
131559.00383276906,130425.42539859233,1133.578434176738,-4.096339966810774,19.2442059983088,0.26622296469989754
129841.70682619991,128653.41469204397,1188.29213415594,-4.040609561780002,19.320436745450326,0.2685016449051397
128144.28350402493,126900.42449746774,1243.8590065571948,-3.9839404275408015,19.396681075506272,0.2707953439271426
126466.68245685617,125166.44062290576,1300.241833950407,-3.906469941488467,19.472931994040678,0.2731038234799577
124808.76849140566,123451.34852096286,1357.4199704428072,-3.787856995128095,19.54918561128052,0.2754276613589412
123170.57630955392,121755.2241075149,1415.352202039004,-3.644226966309361,19.625435427505145,0.2777666061013069
121552.01351337075,120078.00030050278,1474.0132128679675,-3.454198145016562,19.701673064962467,0.28012098817206404
119952.92302795743,118419.55677084965,1533.3662571077778,-3.2166789565235376,19.77789150501841,0.28249046994483834
118373.21845166052,116779.83317421404,1593.3852774464754,-2.969418439664878,19.854085472003625,0.2848752867525349
116812.83100556176,115158.7981694052,1654.0328361565605,-2.7211663763737306,19.93024473565818,0.28727497983422506
115271.60827498301,113556.3203671776,1715.2879078054168,-2.5126183737884276,20.006368960077875,0.28969048563969285
113749.44020426917,111972.32535630639,1777.1148479627766,-2.3453304679133,20.082447544106543,0.29212097270443244
112246.1933835084,110406.6991627639,1839.4942207445008,-2.1810525361797772,20.158482520175713,0.2945672879920429
110761.77522155721,108859.39079467401,1902.3844268832065,-2.0399852097034454,20.23445804441643,0.2970282860516873
109296.1024829477,107330.33426690137,1965.7682160463369,-1.938591132464353,20.3103756449296,0.299505253436149
107848.92730284866,105819.31918327027,2029.6081195783916,-1.8645515137468465,20.386221784287795,0.3019967856012446
106420.29534845347,104326.40958725596,2093.8857611975163,-1.7880797434481792,20.462001307228604,0.3045042555056168
105010.00308458447,102851.44600506044,2158.557079524039,-1.6968100150697865,20.537694775010095,0.30702659561580314
103617.99689704567,101394.38959746124,2223.6072995844265,-1.5890190936625004,20.613304801342945,0.3095648195684072
102244.04419060097,99955.0414248336,2289.0027657673704,-1.5555249520693906,20.68881539788505,0.3121182916813386
100888.03880408868,98533.3155451935,2354.723258895176,-1.599110129638575,20.764230899749194,0.3146874854790145
99549.72027457005,97128.98611293374,2420.734161636316,-1.735987322346773,20.839534484762765,0.3172709948903023
98228.99701422756,95741.9788118337,2487.0182023938546,-1.9641877487301826,20.91472893039252,0.3198707032648957
96925.66337505619,94372.11562265227,2553.547752403923,-2.2439030534005724,20.989792760520057,0.32248476289505934
95639.75283075127,93019.43994784825,2620.312882903022,-2.558864997990895,21.064731273241527,0.32511454088636604
94370.95230859413,91683.6808334589,2687.271475135236,-2.8662126227864064,21.139521533523073,0.32775786581531796
93119.39858773207,90364.98565891142,2754.4129288206477,-3.19620329386089,21.214170209865138,0.33041730130816027
91884.77013068243,89063.07251663916,2821.6976140432685,-3.55488237622194,21.288651746683623,0.33309053762286417
90667.04679424135,87777.93047700846,2889.1163172328925,-3.9456834655138664,21.362971093510215,0.3357793167819563
89466.0152862116,86509.38138828421,2956.6338979273896,-4.384913724206854,21.437109022369576,0.3384816863642081
88281.42639717329,85257.1795571714,3024.246840001888,-4.810877785843331,21.511071520289402,0.34119924879505126
87113.07005290219,84021.1466984321,3091.9233544700814,-5.2488708754535764,21.584833783278874,0.3439300368501171
85960.79099062095,82801.13863037025,3159.6523602507095,-5.706544917949941,21.658398997378107,0.3466766156866548
84824.50929666935,81597.10514009882,3227.4041565705234,-6.219593467016239,21.731748563788827,0.3494366750325344
83704.07370703715,80408.9144320509,3295.1592749862616,-6.744104768789839,21.80488709216002,0.3522124004821383
82599.43422458235,79236.53811219477,3362.896112387572,-7.348806402180344,21.877791265454164,0.35500081924093024
81510.35020889751,78079.75220352177,3430.5980053757435,-7.993460446421523,21.95047218937416,0.3578047856537277
80436.73803279489,76938.4924488044,3498.2455839904874,-8.694210978923365,22.02290082457288,0.3606216571574811
79378.4763461271,75812.65692614122,3565.819419985877,-9.387154053139966,22.095089611096597,0.3634544613269893
78335.36454969639,74702.05258228189,3633.311967414496,-10.106436760572251,22.16700246990609,0.36629918206526524
77307.19076806615,73606.48954303999,3700.7012250261578,-10.872346434101928,22.238644225348608,0.36915873581815434
76293.89344087022,72525.93922717187,3767.9542136983514,-11.66571645316435,22.309986868839747,0.3720300538108383
75295.32186768172,71460.24887124557,3835.072996436148,-12.486176563135814,22.38103615846346,0.37491509418450814
74311.31588373226,70409.29794558938,3902.017938142881,-13.325757981627248,22.451768316215286,0.3778122332860468
73341.60835118552,69372.80188618659,3968.806464998937,-14.179589419974945,22.52218176016521,0.38072177126933887
72386.17597396643,68350.78979546113,4035.386178505296,-15.038151595043018,22.59225267276028,0.3836420717250008
71444.9179393493,67343.1428243374,4101.775115011899,-15.92549878754653,22.66198287264836,0.3865738072507661
70517.64394576114,66349.72274005394,4167.921205707193,-16.834781734272838,22.731350320376364,0.3895157865888392
69604.20814595898,65370.366906353316,4233.841239605669,-17.82427478901809,22.80035772527027,0.39246831690840406
68704.40806488652,64404.92253187485,4299.485533011664,-18.860991082212422,22.86897945313666,0.395430970858815
67817.96310053002,63453.0737163009,4364.889384229108,-19.9643671385129,22.93722426393231,0.39840458259295236
66944.69302581216,62514.68963768113,4430.003388131031,-21.116624958754983,23.005068307604187,0.40138828478888944
66084.62387147755,61589.77233270361,4494.851538773948,-22.351290720689576,23.072510584761375,0.4043821994434397
65237.50092557589,60678.12053274061,4559.380392835282,-23.624613341817167,23.139527361987607,0.4073856353664336
64403.26940711885,59779.65417394788,4623.615233170975,-25.00868185114814,23.20611241104951,0.41039873846122993
63581.678239052024,58894.163173436624,4687.515065615397,-26.498382428253535,23.272245940768805,0.41341960126920657
62772.69682064588,58021.60243817972,4751.09438246616,-28.111854305083398,23.33793389206184,0.41645022459998193
61975.93400926839,57161.616094313846,4814.317914954545,-29.81951579055749,23.403151069269992,0.4194878912575645
61191.59577556033,56314.392688415515,4877.203087144811,-31.56830026442185,23.46789398223958,0.4225350553175153
60419.25331796962,55479.546026862685,4939.7072911069345,-33.38080899696797,23.53214417185977,0.425588919599073
59658.98091041085,54657.12114443404,5001.859765976812,-35.235697881144006,23.595901337046907,0.42865154227506747
58910.35229280632,53846.73763299911,5063.61465980721,-37.181672146660276,23.659138621866177,0.43171938188997566
58173.44666432361,53048.438438128884,5125.008226194726,-39.14288887538714,23.721854878041352,0.43479490112929264
57447.92583717181,52261.940021175455,5185.985815996353,-41.26681168022333,23.7840350356338,0.43787492719076054
56733.904695995356,51487.33275692492,5246.571939070433,-43.41122761112638,23.84568104993912,0.44096231647238043
56030.89606513297,50724.15887315659,5306.7371919763755,-45.65623410482658,23.906765907085365,0.4440526950323962
55339.110615925325,49972.61825894682,5366.492356978506,-47.835640259087086,23.967292792939887,0.4471501125798218
54657.95881535587,49232.12886425221,5425.829951103657,-50.133746138599236,24.02722650300241,0.45024797045600745
53987.757498239785,48503.008960909836,5484.748537329949,-52.44376812392147,24.086576376243002,0.45335031558353256
53328.114144728286,47784.900529162536,5543.213615565753,-54.81741576420609,24.14531425564473,0.45645338731104196
52678.9875783803,47077.74563196924,5601.241946411057,-57.21865316311596,24.203451635885752,0.4595600244412013
52040.1270297287,46381.32994395436,5658.797085774336,-59.75388945970917,24.26096422022585,0.4626676796319464
51411.43608063343,45695.52288359585,5715.913197037579,-62.37798571534222,24.317852860996677,0.4657790747277013
50792.83662719609,45020.28055815585,5772.556069040239,-65.16739773645531,24.374089618754,0.4688885192481802
50184.16376103149,44355.400765339575,5828.762995691914,-68.01616774767172,24.429680576602216,0.4719983806159362
49585.11102330871,43700.64204065412,5884.4689826545855,-70.9391304582241,24.484599927898778,0.4751054601647105
48995.87794816662,43056.1364105409,5939.741537625722,-73.8873397675925,24.538864377163843,0.4782141092574104
48416.195355182615,42421.7180417409,5994.477313441713,-76.9282430614694,24.592440036742673,0.4813192085566736
47846.18411600137,41797.40340586355,6048.7807101378185,-80.06120812217705,24.645339679489403,0.4844239200896361
47285.45281633804,41182.91173113135,6102.541085206684,-83.32399787346367,24.697529895228293,0.48752385795624953
46734.05718987417,40578.197765488774,6155.859424385397,-86.66355916595785,24.749011555547618,0.4906208531973543
46191.895809289985,39983.26251417782,6208.633295112164,-90.07897521945415,24.799750718273362,0.4937109010907313
45658.90993110715,39397.97711391298,6260.932817194165,-93.60036674462026,24.849769788304013,0.49679693112367945
45134.81928154119,38822.12797601714,6312.691305524052,-97.18977738323156,24.899039552563966,0.49987603554718957
44619.46081684809,38255.49711335762,6363.963703490474,-100.85510343074566,24.947576844645937,0.5029502454675209
44112.797747058255,37698.08585536649,6414.711891691768,-104.56178425933467,24.99534826540262,0.5060185452824427
43614.67641232218,37149.70120099451,6464.97521132767,-108.28342960344162,25.042362884350897,0.509077365026144
43124.99737350099,36610.30165483203,6514.695718668962,-112.04233562579611,25.088596024734,0.5121306281166506
42643.563804024394,36079.618114962286,6563.9456890621095,-115.81211013626307,25.134038729021913,0.5151696334425838
42170.345529851045,35557.68751428805,6612.6580155629945,-119.57282700913493,25.178690366269016,0.5182011863014628
41705.1639966556,35044.29969147332,6660.864305182278,-123.3080211392371,25.222534783939217,0.5212179385296454
41247.91942381534,34539.361549769244,6708.557874046099,-127.12245843181154,25.26557157422243,0.5242251198598157
40798.67005577042,34042.97967319723,6755.690382573185,-130.9556608913117,25.307796408532273,0.5272154354455747
40357.07741541479,33554.725436611814,6802.351978802974,-134.80683159746695,25.349197950049295,0.5301938039523594
39923.16175254582,33074.71251366372,6848.449238882101,-138.68020907393657,25.38977355608128,0.5331558730848124
39496.518226300956,32602.447698188615,6894.070528112343,-142.56790029018885,25.42949627252114,0.536102892093667
39077.28896561193,32138.1440439335,6939.144921678432,-146.5166019035969,25.468371769397116,0.5390304885293026
38665.36223601451,31681.608347779875,6983.753888234632,-150.487158827018,25.50639336173869,0.5419421070614431
38260.42464538367,31232.587481339193,7027.8371640444775,-154.50230760104023,25.543559230925077,0.544834266952296
37862.65906579505,30791.228759505768,7071.430306289281,-158.5451269566547,25.579849089306535,0.5477042365085111
37471.98268261674,30357.47639087136,7114.506291745383,-162.66781079827342,25.61528451448003,0.5505553833107227
37088.1557302487,29931.085334217845,7157.07039603085,-166.77648959151702,25.649819288940026,0.5533785173125936
36711.127855365616,29511.98707486446,7199.140780501155,-170.93563792458735,25.68349817164559,0.5561810098948947
36340.62719342563,29099.938557137393,7240.688636288235,-175.01893204380758,25.716280941230394,0.5589585239288152
35976.85178191969,28695.100963208937,7281.750818710756,-179.08884306193795,25.74819804742183,0.5617124739895453
35619.358054547105,28297.0565919584,7322.301462588708,-182.98993392463308,25.77922357832633,0.5644421070856486
35268.46343706307,27906.096450865178,7362.366986197892,-186.88598385028308,25.80936882466218,0.5671462622178755
34923.718235962966,27521.825587657142,7401.892648305822,-190.67045021627564,25.838595698703422,0.5698215708723731
34585.46778181249,27144.492041091104,7440.975740721388,-194.45590853504837,25.866928264287097,0.5724694609211658
34253.161442833836,26773.679481390132,7479.4819614437,-198.15682684851345,25.89436320885923,0.5750914831892916
33926.884749980054,26409.29631644128,7517.588433538775,-201.91459185403073,25.92086692631235,0.5776777140490785
33606.508158427016,26051.413170393324,7555.094988033691,-205.6465381156886,25.94649198669055,0.5802412254502749
33292.19146083452,25699.96413958836,7592.227321246159,-209.34764404187445,25.971186447420692,0.5827665749867118
32983.65647841409,25354.908022657597,7628.748455756488,-212.99341171700507,25.994990061608032,0.5852661314126023
32681.049020098588,25016.16713250316,7664.881887595426,-216.62019960960606,26.017889650367678,0.5877290501593213
32384.18442480386,24683.748551517943,7700.435873285918,-220.22027032147162,26.039884701093964,0.590162251647118
32092.896138937147,24357.30862484414,7735.587514093009,-223.82592267665314,26.060976942625036,0.5925570887423921
31807.135325270414,24036.947486672118,7770.187838598296,-227.43449520331342,26.081166536334102,0.5949170841206909
31526.5624096315,23722.202309886965,7804.360099744537,-231.10872977256076,26.10047456944084,0.5972391223613517
31251.47054429229,23413.445366583805,7838.025177708484,-234.75341106549604,26.118894210677077,0.5995253932114276
30981.704739690278,23110.459069977005,7871.245669713271,-238.53993045247626,26.13644745151143,0.601775438787436
30716.924496654025,22812.957488520333,7903.967008133692,-242.25411931221606,26.153116993795706,0.6039846941568517
30457.152674490353,22520.891685880444,7936.260988609908,-246.0304057536414,26.168922865018835,0.6061588375113263
30202.259739352598,22234.17574371927,7968.08399563333,-249.73527579498477,26.183851893090583,0.6082884389996063
29952.24913925217,21952.777957122293,7999.471182129875,-253.52910505182808,26.197904790521697,0.6103803463753189
29707.19825948306,21676.80298027297,8030.39527921009,-257.2987191377906,26.211123390592768,0.6124344796230603
29466.63020526554,21405.735845707295,8060.894359558246,-261.0788322753506,26.22347053680249,0.6144475406225
29230.899432404785,21139.9491559,8090.950276504785,-264.8353426796384,26.234984019068612,0.6164203210477274
28999.52561958562,20878.953224280453,8120.572395305169,-268.62059346877504,26.24566599537911,0.6183551251257151
28772.95293248203,20623.19808892868,8149.75484355335,-272.4552429684554,26.255519549714712,0.620247979502765
28550.663085959815,20372.139855737005,8178.5232302228105,-276.37587083276594,26.26458477906304,0.6221070073482916
28332.83976086472,20125.97324842104,8206.866512443681,-280.41735921631334,26.272785696952464,0.6239171248706281
28119.466926101195,19884.637991308282,8234.828934792911,-284.5558196576312,26.280213592923182,0.6256906984083546
27910.302137809223,19647.972305735126,8262.329832074098,-288.849604000221,26.286840816807175,0.6274268796157386
27705.182218459144,19415.683336738388,8289.498881720754,-293.23694811813766,26.292693740792185,0.6291231372449803
27504.067570772062,19187.88005955845,8316.187511213611,-297.7514936583466,26.2977577264143,0.6307790742604499
27306.764877215013,18964.17102884099,8342.593848374023,-302.40581019368256,26.302049656270196,0.6323909602149245
27113.48834393111,18744.990287822926,8368.498056108181,-307.2438045194722,26.30560446775452,0.633969909735522
26923.977621070153,18529.837872225005,8394.139748845146,-312.2726815631031,26.308404965663033,0.635504013533465
26738.17687798848,18318.875599945775,8419.301278042707,-317.41428507782985,26.31047014465313,0.6370042636514127
26555.829190236243,18111.645403683233,8444.18378655301,-322.85653022880433,26.31179562537482,0.638455034168191
