energy,prior,fidelity,mass,psnr,ssim_indices
29541.4281348392,29541.4281348392,0.0,0.0,16.485665036932176,0.23884468511774015
26957.372629402988,26946.77921300818,10.593416394807779,0.21845893743738998,16.911574056901987,0.24946090655512368
24627.821655451957,24587.582980485997,40.23867496595866,0.4504516707820585,17.331324861766436,0.26019628562952574
22531.645710949862,22445.699924166547,85.94578678331656,0.6871746657707263,17.744053826296216,0.2710216097924796
20648.807454647893,20503.809455765193,144.99799888269948,0.9282385716651333,18.14891640982822,0.2819078993901549
18960.342123425027,18745.400704805736,214.94141861929077,1.166724546070327,18.545100052382956,0.29283128341571113
17448.36624007207,17154.79275707976,293.57348299231415,1.3926404014782747,18.931831753928304,0.30375910666975964
16096.132062736817,15717.200228527028,378.93183420978835,1.6317886397446273,19.308382321360213,0.31465954674907165
14888.063095770805,14418.78256973478,469.2805260360253,1.896152498491574,19.674075577490864,0.3255032478177761
13809.709673488644,13246.613418917923,563.09625457072,2.189442979521118,20.028312782649692,0.3362663089450337
12847.773141246864,12188.715158362264,659.0579828846005,2.508418816709309,20.370569926342586,0.3469360585738683
11990.046070239534,11234.019161780187,756.0269084593482,2.8318592503928812,20.70039562323201,0.35749111676758255
11225.38604081187,10372.3429973743,853.0430434375701,3.1342526574153453,21.017410862764496,0.367905704419937
10543.70958707468,9594.414466829978,949.2951202447028,3.4039740379084833,21.321327188519557,0.37817090109453866
9935.890473918082,8891.776965584588,1044.113508333494,3.6367397809081012,21.6119328876794,0.38826742133037956
9393.706793169098,8256.748356495278,1136.9584366738193,3.827195879202918,21.88910023747968,0.39818764444033344
8909.797749853795,7682.397287129561,1227.4004627242334,3.9865931787644513,22.152777333855397,0.40792734064239644
8477.57857948615,7162.471569745718,1315.1070097404324,4.122971230332041,22.402977316569306,0.4174761503749589
8091.155136133624,6691.31259608541,1399.8425400482142,4.226001593269757,22.63978492267249,0.426830988225646
7745.297882102975,6263.852581251256,1481.4453008517182,4.282802860514494,22.863350245482543,0.4359888325915498
7435.382154304985,5875.567864141834,1559.8142901631504,4.292902371555101,23.073881230345272,0.4449445290296057
7157.308386960667,5522.403887840607,1634.90449912006,4.249287840502802,23.271637143227863,0.4536882599286045
6907.454813609786,5200.7369983198805,1706.7178152899048,4.144633443385828,23.45692577277002,0.4622292207436202
6682.636221067224,4907.349489457289,1775.2867316099353,3.9862691982852994,23.630089996205047,0.47055686628036164
6480.038266551034,4639.3639189567675,1840.674347594267,3.7790130756620783,23.791503020020734,0.4786783628473632
6297.183576481483,4394.217344877876,1902.9662316036074,3.529242691482068,23.941562503084203,0.486603221634278
6131.889073198362,4169.625662453661,1962.263410744701,3.2466821909038117,24.080694466804424,0.4943255634348489
5982.2336385749895,3963.553369099319,2018.680269475671,2.9338884800381493,24.209339215905974,0.5018414387388948
5846.528516616137,3774.192446993502,2072.3360696226346,2.595806561745121,24.32794393793506,0.5091464948395334
5723.282505263588,3599.928284478583,2123.354220785005,2.238164357127971,24.43696109424662,0.5162443876936073
5611.184511683301,3439.324100945031,2171.8604107382694,1.8672188621858368,24.536844947624576,0.5231390246095937
5509.072575177783,3291.0935643381913,2217.979010839592,1.4986939111549873,24.628049387125,0.5298365289641787
5415.92098392272,3154.0886173610697,2261.83236656165,1.14331080642296,24.711024356672183,0.5363348205524167
5330.822729930239,3027.283242509965,2303.539487420274,0.8025039320345968,24.786215264297997,0.5426331637538339
5252.97130841617,2909.755373396646,2343.2159350195247,0.4766779986239271,24.85405922327528,0.5487403398320447
5181.650299036632,2800.6767288290257,2380.9735702076055,0.17117866287298966,24.91498132288536,0.5546552242665025
5116.224968908395,2699.306012405447,2416.9189565029474,-0.10779870551778004,24.969392546547006,0.5603876052443927
5056.130281348835,2604.9768141067634,2451.153467242071,-0.3570413302804809,25.017689125392483,0.5659382200434815
5000.862331765969,2517.08839428648,2483.7739374794896,-0.5756203914788784,25.06025603687621,0.5713083364083045
4949.970677390593,2435.098944093923,2514.8717332966703,-0.7602655196824344,25.097460880125652,0.5765060376249075
4903.053239421944,2358.520377861175,2544.5328615607696,-0.9119940643722657,25.129655116850493,0.58153206488149
4859.749819091664,2286.911642901283,2572.838176190381,-1.033705675174133,25.157173625111078,0.5863886146530374
4819.737354898045,2219.8738923434075,2599.863462554637,-1.1278051745612174,25.18033399967294,0.5910755923619407
4782.726380838093,2157.0466505690874,2625.6797302690056,-1.1888284305750858,25.19943896988839,0.5955978386502689
4748.456987900308,2098.1030797344138,2650.3539081658946,-1.2139429053495405,25.214775720196645,0.599962540922221
4716.695156952829,2042.7456148777267,2673.9495420751023,-1.2018008671147982,25.22661281564078,0.6041730007751879
4687.229985714102,1990.7041392514284,2696.5258464626745,-1.1526682268740842,25.235204243499666,0.6082301177707561
4659.870865245021,1941.7325496276246,2718.138315617397,-1.0669613408390433,25.240790067404106,0.6121390383757154
4634.4453176772895,1895.605830304708,2738.8394873725815,-0.9457057042600354,25.243595854711423,0.6159032765203687
4610.797280138636,1852.1185858763176,2758.678694262318,-0.7905651202745503,25.24383280087148,0.6195285041700799
4588.78557469983,1811.0834454487306,2777.7021292511,-0.6052538357907906,25.24169892689614,0.6230215457914379
4568.282223828486,1772.3289786426835,2795.9532451858026,-0.3929609537735814,25.237379557915478,0.6263822505649973
4549.171005323925,1735.6981248695083,2813.4728804544166,-0.15414316847454756,25.23104706280734,0.6296158870010734
4531.346384967134,1701.0469541255545,2830.29943084158,0.11139523693418596,25.22286130865515,0.6327261036094766
4514.712569598135,1668.243473006941,2846.469096591194,0.40421840341878124,25.212971840735406,0.6357160772875573
4499.182342357196,1637.1664186836772,2862.015923673519,0.7238190675125225,25.201519101463262,0.6385873888611852
4484.675906404787,1607.704120363292,2876.9717860414953,1.0691230046213605,25.188634383009862,0.6413447890747075
4471.119929343992,1579.7531999129062,2891.366729431086,1.4393393181817373,25.1744406673542,0.6439905188554439
4458.447290016416,1553.2182145830852,2905.229075433331,1.8333935220871354,25.159053603963606,0.646527737265276
4446.5964356941095,1528.0109028099953,2918.585532884114,2.2501264616730623,25.142581405577616,0.6489600156902257
4435.510811872398,1504.0495642424805,2931.461247629918,2.6881241687660804,25.12512424328903,0.6512915969744147
4425.138498674565,1481.2586560697373,2943.879842604828,3.1464214779116446,25.106774795111463,0.653525923394651
4415.431739781705,1459.5680559291059,2955.863683852599,3.623626912900363,25.08761866935467,0.6556661446916004
4406.346457340484,1438.9125462109987,2967.4339111294858,4.1181209042988485,25.067735140087315,0.6577160264616891
4397.8418933853245,1419.231345200402,2978.610548184922,4.627989989283378,25.047197962480013,0.6596779580100441
4389.88032996808,1400.4677347471638,2989.4125952209165,5.15111712316866,25.026075827998447,0.66155461404023
4382.426906045185,1382.5689222202677,2999.8579838249175,5.685325510377879,25.004432683440662,0.6633488975287708
4375.449383874988,1365.4857696224235,3009.9636142525637,6.228903687835555,24.982328433532523,0.6650628966897398
4368.9178124293285,1349.1723384024895,3019.7454740268386,6.780484032584354,24.959818833570896,0.6666996118851983
