energy,prior,fidelity,mass,psnr,ssim_indices
215832.92114584573,215832.92114584573,0.0,0.0,16.475113676582033,0.06181261387420514
213251.57567452252,213250.5339714795,1.0417030430193641,0.6176439491682686,16.548506074809804,0.06235048260220424
210688.55161682336,210684.4001540461,4.151462777253817,1.241227886544948,16.62209475141647,0.06289504400453579
208144.3233021786,208135.01765759717,9.30564458143171,1.8713004886812996,16.69587778197886,0.06344655449145135
205619.1457847314,205602.66654723065,16.47923750074086,2.4920787629889674,16.769853645870974,0.06400522820893761
203113.30959927582,203087.66257475773,25.647024518095925,3.1246010816830676,16.84402001667,0.06457117554933825
200627.09225910236,200590.309972524,36.78228657834394,3.7554807891719975,16.918375509611852,0.06514467167308591
198160.76391944793,198110.90569071937,49.8582287285521,4.40182569562603,16.992917923339842,0.06572588855123272
195714.53106108593,195649.6844390489,64.84662203702365,5.0678961127996445,17.067645950442735,0.06631533828086392
193288.57295600642,193206.8541865283,81.71876947810726,5.734856054325064,17.142556269278273,0.06691301018619313
190882.96218052536,190782.51565251127,100.44652801408488,6.4244758366039605,17.217646672041273,0.06751917978150855
188497.90457978268,188376.9044025357,121.00017724698142,7.13231874389021,17.292915682181267,0.06813410503513416
186133.50389848728,185990.15439066564,143.3495078216242,7.868941354150593,17.368361069406827,0.06875808108203497
183789.9685019883,183622.50372135406,167.46478063425187,8.62942290121282,17.443980282871294,0.06939143848878164
181467.42507414083,181274.1116614651,193.3134126757339,9.377754258239293,17.519772480593183,0.07003447121379126
179165.9059149579,178945.04023010534,220.86568485255947,10.123145741490589,17.595735407799257,0.07068741551107277
176885.5194554591,176635.43078293622,250.08867252288826,10.855596701243485,17.671866921869473,0.07135069348631617
174626.34545913857,174345.39494730294,280.9505118356291,11.601186625710397,17.748163990447882,0.0720247553271124
172388.40997161221,172074.9906494078,313.4193222044198,12.368391863041325,17.824625303292738,0.07270998104672849
170171.824280337,169824.3614180941,347.462862242875,13.150013767102791,17.90124729893199,0.07340699534529356
167976.66595895676,167593.61783917833,383.048119778411,13.954384342418052,17.978029038696235,0.07411614771644211
165802.93906337567,165382.79945045096,420.1396129247284,14.771159222873393,18.05496733906672,0.07483784422087125
163650.5605181496,163191.85414837138,458.7063697782193,15.567072690733767,18.132060613403013,0.07557262376785058
161519.63358984448,161020.9187653125,498.714824531981,16.333225672264234,18.20930461327969,0.07632078894397192
159410.25036850185,158870.12256004175,540.127808460094,17.056358484165685,18.28669770898998,0.07708285946397254
157322.3198429563,156739.4052384694,582.9146044869083,17.769836099883833,18.36423679171958,0.07785915074398837
155255.8668462353,154628.8296108453,627.0372353899835,18.473588886896323,18.441919694497283,0.07865016700246928
153210.8209250517,152538.35474829064,672.466176761057,19.168296802730765,18.519745259800608,0.07945663167346584
151187.17993652556,150468.01710550374,719.1628310218227,19.833006782020675,18.59771034704796,0.08027915166216926
149184.84822644264,148417.74986537642,767.0983610662357,20.449012329532707,18.675812789140718,0.08111847290107915
147203.98052333877,146387.74826271116,816.2322606276126,21.05206136844936,18.75404834832296,0.0819752100800565
145244.4363517657,144377.90351416398,866.5328376017397,21.668292639507854,18.832414086141508,0.08284986179058439
143306.07559427118,142388.11231680817,917.9632774630273,22.318694204368512,18.910907885615458,0.0837429691755871
141388.82350324336,140418.32884162385,970.4946616195039,22.973392914951546,18.98952694491746,0.08465565477195712
139492.67553752818,138468.58620444103,1024.089333087141,23.643246603729494,19.068270018509473,0.08558869858753977
137617.56289107061,136538.84216962298,1078.7207214476316,24.304501605605765,19.14713387142678,0.08654238332222138
135763.37580300515,134629.03027185056,1134.3455311545913,25.01391401977162,19.226116771776923,0.08751747861000031
133930.14538756444,132739.206947173,1190.938440391434,25.755677099819877,19.305213346287875,0.08851469207971445
132117.7423759219,130869.28571569639,1248.4566602255086,26.516487578468514,19.384420551781943,0.08953506680439381
130326.13686816122,129019.26145999545,1306.8754081657667,27.270036375492055,19.46373536467309,0.09057982247761609
128555.19638494306,127189.04273093033,1366.1536540127254,28.027908758573176,19.543154965681172,0.09164918709882465
126804.90821595279,125378.6392166845,1426.2689992682795,28.788436721319158,19.62267584674312,0.09274422303756454
125075.23619202813,123588.06564347785,1487.1705485502723,29.563389622213435,19.70229311030531,0.09386581975117671
123366.00623408008,121817.1706653995,1548.8355686805755,30.317841133823094,19.782003415821997,0.09501479631169597
121677.15737210197,120065.93200783568,1611.2253642662909,31.07096359760908,19.861801344491397,0.09619188260394597
120008.55308648851,118334.23620133905,1674.316885149455,31.78766710426862,19.94168412242172,0.09739821499266595
118360.11581718849,116622.04397801532,1738.071839173169,32.48738112124556,20.021649395295334,0.0986347377103375
116731.84053424835,114929.38131982257,1802.4592144257774,33.139032229504664,20.10169603062442,0.09990250047371267
115123.32821275287,113255.88450476155,1867.443707991317,33.75616651701421,20.18182062248806,0.1012020712494837
113534.44206727855,111601.43114688086,1933.010920397688,34.309776296810014,20.26201938194398,0.10253487554756717
111965.17167901684,109966.04940373328,1999.1222752835624,34.84766721226333,20.342288912344678,0.1039019743019123
110415.27427828741,108349.52701705974,2065.747261227682,35.30396465985541,20.422627293444027,0.10530465033053427
108884.65027334426,106751.79061645165,2132.8596568926164,35.734465498506324,20.50302753277108,0.10674332605551985
107373.18745481502,105172.7597557513,2200.427699063713,36.114009239194274,20.583486504046657,0.10821890471082452
105880.83958412975,103612.41879734115,2268.4207867886066,36.51366452894581,20.663999651958438,0.10973212007069692
104407.44967728926,102070.64553873327,2336.804138555998,36.87329349808715,20.744560730719,0.11128434513350105
102952.81234011582,100547.25335814268,2405.558981973145,37.240268114881474,20.825166992717495,0.11287665556884431
101516.76290687543,99042.11030700932,2474.6525998661064,37.58052473934367,20.90581687701188,0.11451088539543691
100099.18483952717,97555.1257603887,2544.0590791384566,37.95409569955518,20.98650247775309,0.11618727329038747
98699.88467558642,96086.13038484707,2613.754290739349,38.34408579983574,21.06722430816488,0.11790752675273446
97318.78964594651,94635.08009717613,2683.709548770374,38.74270673882711,21.147977505625025,0.11967153004704294
95955.65460119078,93201.75325657676,2753.90134461402,39.131491620093584,21.228758136027565,0.12148106550371668
94610.42425592497,91786.12415588934,2824.3001000356326,39.48443438331742,21.309557659616747,0.12333698890906152
93282.84939686452,90387.96031139822,2894.889085466306,39.82955135987868,21.390373404493666,0.12524057344560544
91973.07567926534,89007.44914945663,2965.626529808715,40.148528373123554,21.47119991879684,0.12719271308502378
90680.8493517937,87644.35284060467,3036.496511189028,40.44291366414109,21.552032933802494,0.12919398185857559
89406.19826885976,86298.7262684175,3107.4720004422707,40.73926701300661,21.632864797742748,0.13124554405829156
88148.63964908334,84970.1101634436,3178.529485639732,41.076190036154,21.713692702968924,0.1333488404526146
86908.38559907192,83658.74842212195,3249.637176949971,41.434861207140784,21.79450710585909,0.1355041588340285
85684.69728778243,82363.90742297743,3320.789864805001,41.7974033155333,21.875308820510302,0.13771292480617658
84477.73798783994,81085.76909455794,3391.968893282006,42.16656518709351,21.956088751344435,0.13997588958165721
83287.0650217472,79823.90268567925,3463.1623360679555,42.53879939557373,22.036845440105246,0.1422930893456957
82112.6619440761,78578.31888547426,3534.3430586018417,42.95764570227766,22.11756999835349,0.14466478194757806
80954.48408540509,77349.00047366746,3605.483611737625,43.342173980679945,22.198255871974034,0.14709252982621965
79812.54693969757,76135.98625467083,3676.5606850267345,43.73750379552803,22.278894884427366,0.14957664070389926
78686.56995985206,74939.02334558853,3747.5466142635296,44.10884322160564,22.359482295253812,0.15211614656579586
77576.60061861247,73758.1684002725,3818.432218339985,44.47511522752029,22.440013996730414,0.15471224132141795
76482.23524219105,72593.05070224853,3889.184539942525,44.78178021860367,22.52048084200645,0.15736509435782342
75403.34233257126,71443.53496783205,3959.807364739209,45.12532949435263,22.600878955816164,0.16007630284594132
74339.74509381055,70309.46622567427,4030.278868136269,45.45707862805284,22.68120157135882,0.1628450256432544
73291.38333988066,69190.81981484719,4100.563525033474,45.8036900809966,22.761446260018193,0.16567285179518512
72258.03845086461,68087.37808715417,4170.6603637104445,46.099832602150855,22.841605333439983,0.16856078677993905
71239.72292379232,66999.19036486633,4240.532558925989,46.42006247794052,22.9216734041313,0.17150783981668483
70236.20831187787,65926.02650202799,4310.181809849876,46.743450711765036,23.001640390975922,0.1745153914414387
69247.25165626872,64867.68046974656,4379.571186522156,47.14202581256541,23.081503043627603,0.17758258439272512
68272.69199087145,63823.99203712182,4448.699953749636,47.521256909174554,23.161242798772676,0.18070924757054474
67312.25368615224,62794.71015558042,4517.543530571815,47.90217701465008,23.24085806636932,0.18389663762136998
66365.88255536385,61779.774523273074,4586.108032090777,48.1982581248958,23.320334296559622,0.18714469187262064
65433.267979730925,60778.90312333872,4654.364856392201,48.48325076558103,23.39966986305612,0.1904536675416368
64514.440512981804,59792.125391818096,4722.315121163711,48.77118117897771,23.478850148236003,0.19382265891526537
63609.13446001825,58819.18844458434,4789.9460154339085,49.08706522517605,23.557870889494808,0.197251031553085
62717.3727535019,57860.13979170478,4857.232961797119,49.46339935805008,23.636724080389037,0.200737795668169
61838.76489631347,56914.59458964498,4924.170306668494,49.909683835241594,23.715402134403092,0.20428374180052447
60973.22219368531,55982.47882941927,4990.743364266043,50.41033774335665,23.79389104575555,0.20788933483093017
60120.800386274415,55063.87424495654,5056.9261413178765,50.99826341503649,23.872185368669815,0.21155192008866774
59281.34942723703,54158.62437864726,5122.725048589771,51.58418393179454,23.950270735148912,0.2152730086600062
58454.637738166144,53266.519973391114,5188.117764775032,52.153434657739126,24.02813818752592,0.21905312883054848
57640.58623589856,52387.48581334539,5253.100422553169,52.689150931582844,24.105774863589385,0.2228909050048343
56839.06318928395,51521.39399509684,5317.669194187111,53.26367440827744,24.183174981183925,0.22678437809801066
56049.89680384053,50668.1020872303,5381.794716610231,53.882901924873295,24.260331400868914,0.2307335359498894
55272.90629585048,49827.42281242581,5445.483483424676,54.55365184025868,24.33723515271104,0.2347362623401326
54507.876574774375,48999.154054689774,5508.7225200846015,55.25614702865278,24.413869582753986,0.238793768265208
53754.572464893616,48183.05397034908,5571.518494544538,55.96099992157542,24.49023496657506,0.24290307201595382
53013.07061343602,47379.23792035294,5633.832693083084,56.709686111309566,24.566310592248154,0.24706414502450422
52283.38913863385,46587.735619780884,5695.653518852967,57.5091606420101,24.64210082879837,0.2512764056232993
51565.26107900961,45808.27739473214,5756.983684277471,58.385609247066895,24.71757309336906,0.25553693248957376
50858.48969706497,45040.655532563644,5817.8341645013315,59.31479680224584,24.792730241612343,0.25984514275063797
50162.98939072038,44284.80849483782,5878.180895882561,60.2706445238,24.86754429272606,0.2641984022536239
49478.63607858291,43540.611852442125,5938.024226140786,61.26546994835371,24.942022514966578,0.2685964391606119
48805.20820749354,42807.84372633088,5997.364481162657,62.321961639441724,25.01613767259718,0.2730380948867188
48142.52258846637,42086.33775704709,6056.1848314192775,63.426130421546986,25.089898006470133,0.27752157593224086
47490.35876074241,41375.87817320756,6114.480587534856,64.60105528748682,25.163280328043246,0.2820451131574533
46848.641133105426,40676.37971683265,6172.26141627278,65.85946936802065,25.236291533496413,0.2866075615807852
46217.225799055406,39987.723334980896,6229.50246407451,67.16516653920553,25.30890567147045,0.29120668611208717
45595.9594630767,39309.738464800466,6286.220998276237,68.58011564413027,25.381125050635163,0.2958397525306487
44984.78549222806,38642.40267198932,6342.382820238736,70.12463924045733,25.452917237085593,0.30050961637283136
44383.41889212912,37985.399081605094,6398.019810524027,71.84532227386808,25.524275414783226,0.3052113665793101
43792.043248980364,37338.938431377814,6453.104817602553,73.6779114812598,25.595181702019097,0.3099470712763703
43210.269408970635,36702.63787925776,6507.631529712875,75.60596723619528,25.66563135987228,0.3147151387965155
42638.12043325935,36076.53375511953,6561.586678139818,77.66776078325347,25.73561011140111,0.3195133033061381
42075.347816251735,35460.364228030114,6614.983588221622,79.74487281846814,25.805111023597963,0.3243417186879063
41521.73494700749,34853.90949233154,6667.825454675946,81.96125821662281,25.874110931089277,0.32919761246365237
40977.420468867254,34257.3339618486,6720.086507018655,84.16388356628158,25.942604471477225,0.334078463013582
40442.007302632475,33670.20633696866,6771.800965663814,86.51053461066476,26.01057992348524,0.3389828649522217
39915.838906013065,33092.92057792045,6822.9183280926145,88.89331696570298,26.07801155635322,0.34390653312493713
39398.19921478657,32524.7003226431,6873.498892143468,91.3851920957095,26.144900456873096,0.3488487195255762
38889.7128561382,31966.266000546937,6923.446855591263,93.90238066746679,26.21122080645446,0.3538058922430043
38389.4301125704,31416.55990184797,6972.870210722432,96.53810358619376,26.276964071580498,0.3587787465261136
37898.00979908442,30876.349227404873,7021.660571679551,99.23785452017182,26.34209542463489,0.3637629520724057
37414.99425626739,30345.07945337401,7069.914802893376,102.11226853399421,26.406614970518515,0.36875947447306495
36940.60303403121,29823.072310283198,7117.530723748016,105.02827346844424,26.470510544141533,0.37376543082678654
36474.205615212195,29309.572731856893,7164.632883355302,108.07448858740827,26.53377184238325,0.37877564680758663
36016.11691378153,28805.0405654102,7211.076348371329,111.15726369065669,26.596383451495505,0.38378668932537074
35565.813190494395,28308.781721886768,7257.031468607627,114.30981240370602,26.658329428467336,0.38880156178394376
35123.65170756224,27821.358361125014,7302.293346437229,117.4839819916524,26.719607250594173,0.3938160974623604
34688.95993031855,27341.87550161483,7347.084428703719,120.67517951958871,26.78019636907665,0.3988280472807341
34262.26909707562,26871.081078591247,7391.188018484373,123.8737988869616,26.840091347878374,0.40383322937668126
33842.7112050878,26407.93649659493,7434.774708492868,127.06712713661545,26.899261804495737,0.40883265226469595
33431.153636607836,25953.434520334748,7477.719116273089,130.2600269047689,26.957723817028302,0.4138199838896884
33026.476599590955,25506.356807569784,7520.1197920211725,133.41176674406597,27.015425592768963,0.4188005196011575
32629.512403313995,25067.60893335944,7561.9034699545555,136.5630318120311,27.07238805548236,0.4237692190195171
32239.5634270121,24636.41818811778,7603.14523889432,139.564292148003,27.12855688895192,0.42873179281869045
31857.025337290503,24213.23048781728,7643.794849473222,142.52122705517831,27.183958375053475,0.4336799222137933
31481.36192231935,23797.489856908298,7683.87206541105,145.33359320750606,27.23855542898604,0.43861413261481835
31112.716116183932,23389.380225646495,7723.335890537438,148.02152511938766,27.292352075019647,0.44353218895853397
30750.569546532548,22988.301449818257,7762.26809671429,150.55741418610705,27.345322001817824,0.44843509858037606
30395.52757131168,22594.942148312108,7800.585422999573,152.9818228146978,27.39746448047147,0.45331554345575736
30046.597305542648,22208.206356680534,7838.390948862113,155.34188766311127,27.44877418619298,0.45817705012642246
29704.54178476536,21829.019318216717,7875.522466548641,157.6562361757824,27.49925292530743,0.4630116058811126
29368.32198491408,21456.12566523254,7912.1963196815395,159.99483122351376,27.548892383336284,0.4678233658775622
29039.00347038895,21090.81162936342,7948.191841025531,162.27478929625795,27.59767554721488,0.472606687881341
28715.1178538684,20731.348724015646,7983.769129852753,164.65516117033258,27.645586706412367,0.47736075503079545
28398.059946261645,20379.386488620676,8018.673457640969,167.08498423215497,27.69260386110048,0.4820866542253606
28086.337934086125,20033.215959077337,8053.1219750087885,169.62324855919724,27.738730416639203,0.4867828111448504
27781.45525927532,19694.538641663043,8086.916617612279,172.2309172684254,27.783943237874603,0.4914514833541099
27481.602758095614,19361.336222898717,8120.266535196899,175.00302526265295,27.82825395538754,0.4960882368947644
27188.22628094047,19035.281113767993,8152.945167172478,177.81478442765365,27.871653180304232,0.5006932898655614
26899.929762464108,18714.704973015563,8185.2247894485445,180.8829487657349,27.914140348321432,0.505263022747612
26617.72618106703,18400.861035260878,8216.865145806154,184.02488102517964,27.955709626870203,0.5097988714329968
26340.167397822748,18092.118490972196,8248.048906850552,187.38100514672988,27.99636431731209,0.5142949995840359
26068.509349172375,17789.84129029263,8278.668058879748,190.82765198207198,28.036094154905754,0.5187585928075696
25801.680450158456,17492.891288085444,8308.789162073012,194.4069387182535,28.074900010779427,0.5231894017406018
25540.402783245736,17201.96880477933,8338.433978466406,198.0284715276357,28.112762484557656,0.5275865541354606
25283.813896279637,16916.276197594463,8367.537698685172,201.8218003705406,28.14969310617824,0.5319435558757241
25032.793055812348,16636.595192504756,8396.197863307594,205.77350574125012,28.185669966907575,0.5362579923124745
24786.287902549626,16361.996873140362,8424.291029409264,209.9400053909194,28.220690208939594,0.5405260108337396
24544.872442674154,16092.879379788235,8451.993062885918,214.2687717347144,28.254747362418485,0.5447484733487432
24307.719929415667,15828.587246371728,8479.132683043941,218.80331022156315,28.287837253362177,0.5489253733319474
24075.80216307268,15569.912985439934,8505.889177632745,223.3935910108048,28.319960649305493,0.5530616922295234
23848.442793500835,15316.400367739534,8532.042425761301,228.1027091014621,28.35109278526722,0.55715182689367
23625.65280074357,15067.775634970742,8557.87716577283,232.8590413608108,28.381250882922018,0.5611999994633784
23407.45858247163,14824.426349788022,8583.032232683609,237.71409717030474,28.410396331482247,0.5651974639623648
23192.972933998677,14584.982691871151,8607.990242127526,242.6647311737761,28.438579360345017,0.5691506336658313
22983.740335971197,14351.532553328549,8632.20778264265,247.70495909111196,28.46576402016863,0.5730493038057217
22777.78443355506,14121.515291059304,8656.269142495756,252.84852299826161,28.491965943516185,0.5768968221482756
22576.79246258479,13897.178329961156,8679.614132623636,257.99670563736436,28.517154267802557,0.5806924183935164
22379.41947754661,13676.64638052725,8702.773097019359,263.16404284934106,28.54135797336498,0.5844399178532153
22186.658328303638,13461.365660998074,8725.292667305566,268.2841682642611,28.56457527121559,0.5881380126244959
21997.403773107224,13249.880872173875,8747.522900933347,273.49268625007244,28.586812297562318,0.591785379675481
