energy,prior,fidelity,mass,psnr,ssim_indices
237558.36568331483,237558.36568331483,0.0,0.0,16.47820971799447,0.6235166911898039
235368.11318697457,235367.21302460204,0.9001623725231752,-1.3264650192577392,16.54153901330769,0.6256043951844942
233193.24298969842,233189.65511406114,3.5878756372705967,-2.6936638064216822,16.604765828207174,0.6276754204786877
231033.94820775272,231025.90467826667,8.043529486061297,-4.09943934076,16.667880194728212,0.6297294482016097
228890.4025625094,228876.15552383696,14.247038672450147,-5.534907641529571,16.730870814962962,0.6317667866598328
226762.85484291354,226740.67740371756,22.17743919597857,-7.002153139328584,16.79372982999392,0.6337863353482526
224651.49914189437,224619.686073394,31.81306850036709,-8.493872655730229,16.856445945686342,0.6357878001468015
222556.41764326533,222513.2853855065,43.13225775884796,-10.015433852968272,16.919007851606697,0.6377707157409126
220477.8112338648,220421.69887846548,56.11235539932272,-11.556583894067444,16.981406054675848,0.6397342758745047
218415.72035720333,218344.98968706265,70.7306701406868,-13.114196964656003,17.04362837121217,0.6416779001254588
216370.2221935675,216283.2573950418,86.96479852571565,-14.693779482098762,17.10566447286174,0.6436009276206192
214341.48907005144,214236.69796970277,104.79110034867429,-16.303014288598206,17.16750294755425,0.645502880628908
212329.47630063814,212205.29083537278,124.18546526535032,-17.946080469468143,17.229132227887064,0.647383041678436
210334.28037178915,210189.15523718434,145.12513460480028,-19.605158344376832,17.29054068024398,0.6492410152391601
208355.96181464056,208188.37693785244,167.58487678809718,-21.294923344627023,17.351715227304297,0.6510765810242519
206394.60990756212,206203.06946853877,191.54043902334033,-23.022400463407394,17.412644830950043,0.6528890044452845
204450.17658734872,204233.21014581982,216.96644152888697,-24.79606834682636,17.47331777346397,0.654677712348329
202522.84136659055,202279.00282325744,243.83854333310913,-26.600447651871946,17.5337239882355,0.6564424763530795
200612.48693507226,200340.3575677459,272.1293673263648,-28.469902251206804,17.593849510598925,0.6581828581959317
198719.13033806827,198417.31386582466,301.81647224359483,-30.41508923249785,17.65368132590409,0.6598987024293028
196842.79381344593,196509.91852007475,332.87529337118497,-32.42128121107817,17.713205321952543,0.6615893834476467
194983.51673117848,194618.23711682568,365.2796143527916,-34.489473553723656,17.772409714364443,0.6632542151772326
193141.19590371754,192742.1921651979,399.0037385196406,-36.6414547758759,17.831283352125077,0.6648928332495313
191315.86289190638,190881.83999544632,434.0228964600573,-38.870652542449534,17.8898121703264,0.6665049046744121
189507.48340374936,189037.17073917197,470.31266457737985,-41.16904745064676,17.947985571483503,0.6680900371967363
187716.03957394275,187208.19478502817,507.8447889145788,-43.55256334686419,18.005786263441518,0.6696479894049484
185941.46456485504,185394.8696036607,546.5949611943162,-46.001409618533216,18.063202142193532,0.6711777539289988
184183.75912107545,183597.22188480606,586.5372362693918,-48.525019735097885,18.12022002266065,0.6726789754612233
182442.8858877887,181815.240100917,627.645786871703,-51.13173865445424,18.17682742533323,0.6741513503017869
180718.89390107905,180049.00073109317,669.8931699858682,-53.80877722450532,18.233011463027708,0.6755945613008878
179011.73800224104,178298.48605459812,713.2519476429196,-56.55661814007908,18.288760936526366,0.6770083674854886
177321.40721413514,176563.71274129444,757.6944728406957,-59.37985031842254,18.34406246055113,0.6783927999590444
175647.71847617216,174844.51863650978,803.1998396623775,-62.31674597290112,18.398902747482456,0.6797475451857452
173990.67343324368,173140.9306424038,849.742790839855,-65.36724967637565,18.453265319847947,0.681071874716011
172350.17366245933,171452.87402175425,897.2996407050944,-68.51739633549005,18.507138916694093,0.6823655969077554
170726.18194024506,169780.34054139093,945.8413988541282,-71.784150497464,18.560508598317107,0.6836281646874868
169118.61351670237,168123.26952720672,995.3439894956559,-75.16560675762594,18.613365011374476,0.6848589728434321
167527.35866811435,166481.57766528378,1045.7810028305594,-78.67330481816316,18.665693768935284,0.6860581063394084
165952.17734840038,164855.04374779374,1097.1336006066415,-82.26655983476667,18.71748447430266,0.6872251607858514
164393.08471791184,163243.7118140981,1149.3729038137421,-85.9546612954,18.768721049824627,0.6883596203190101
162849.9329654347,161647.45582626635,1202.4771391683719,-89.73794954601908,18.819390732388136,0.6894610293800901
161322.7376597483,160066.3180109041,1256.419648844195,-93.62729015934747,18.869478684480473,0.6905289476798596
159811.3171025237,158500.1417428161,1311.1753597075947,-97.62139259430114,18.918978629430406,0.6915636109749181
158315.742510914,156949.02369270707,1366.718818206922,-101.75351152231451,18.967875637671394,0.6925641124184155
156835.76116122963,155412.73444759194,1423.026713637706,-105.98304132831981,19.016158082574506,0.6935309152985342
155371.40458264918,153891.32556148825,1480.0790211609135,-110.34608436230337,19.0638121189758,0.694463553430067
153922.47764457777,152384.62724681848,1537.8503977593014,-114.79830081411637,19.110828291248975,0.69536176940935
152488.94667937438,150892.62774269487,1596.3189366795261,-119.38177414092934,19.157191825478485,0.6962245419209329
151070.57797741028,149415.11471910114,1655.4632583091325,-124.0656975628226,19.202895997911874,0.6970521529564837
149667.42912366538,147952.17132755424,1715.2577961111447,-128.88679228536785,19.247922624827464,0.6978441851381305
148279.26071806505,146503.57914375182,1775.6815743132267,-133.8074402718339,19.292266964024027,0.6986010840603707
146906.12927631123,145069.41981936555,1836.7094569456945,-138.8589136878727,19.33591616585525,0.6993217032941149
145547.8302777801,143649.50947143708,1898.3208063430077,-144.0179206255125,19.378864641794223,0.7000069654196404
144204.26938525625,142243.77309442748,1960.4962908287566,-149.23525216121925,19.421097802241704,0.7006559619699512
142875.17558802103,140851.9575591093,2023.2180289117339,-154.53326113760704,19.462608483808093,0.7012682760275669
141560.67318954726,139474.21122370698,2086.4619658402908,-159.95061714207986,19.50338597543717,0.7018433059126051
140260.4577595718,138110.24990609102,2150.2078534807647,-165.51371413771994,19.543425791829993,0.7023812703510576
138974.5725387051,136760.14069694906,2214.4318417560557,-171.22615693532862,19.582713628147765,0.7028820996194503
137702.68505649778,135423.5689385027,2279.1161179950955,-177.07815255515743,19.621245219262203,0.7033459331610552
136444.83136711677,134100.5845959494,2344.2467711673676,-183.08217565825908,19.659009892854684,0.7037724227459234
135200.85733220438,132791.061733937,2409.7955982673666,-189.22802921396215,19.695999934590965,0.7041614140130413
133970.7686537919,131495.0231129485,2475.7455408434075,-195.53394836076768,19.73220326795773,0.7045127256210678
132754.30003363884,130212.22519100226,2542.0748426365803,-202.0199397931574,19.76761988849384,0.7048264918339662
131551.6039520597,128942.83829704311,2608.765655016578,-208.69355954421917,19.802235996391314,0.7051017874187292
130362.41937873313,127686.62294635182,2675.796432381312,-215.5375452656881,19.8360561971992,0.7053396682493333
129186.64502765225,126443.49259931357,2743.1524283386766,-222.52474420220824,19.869070765997044,0.7055400891271942
128024.00539148942,125213.1882578605,2810.817133628917,-229.65698240412166,19.901273981764565,0.7057025596635742
126874.50434614076,123995.72685682127,2878.777489319494,-236.97652564913733,19.932658612469186,0.7058267998817472
125737.94406356748,122790.93609358014,2947.0079699873418,-244.42370035499334,19.96322786410373,0.7059138085636056
124614.35089408424,121598.85409983342,3015.4967942508274,-252.02070998289855,19.99296949488585,0.7059621289807024
123503.48189337035,120419.26740842978,3084.2144849405804,-259.72589011868695,20.02189106170382,0.7059731207409659
122405.20737391518,119252.04067874234,3153.1666951728394,-267.589283211506,20.049979494479572,0.7059450928101351
121319.3775348932,118097.06092024238,3222.3166146508215,-275.6152202937519,20.077244332211936,0.7058793405974058
120245.9689280112,116954.30256527477,3291.6663627364364,-283.825234607968,20.103670650461602,0.705774370419519
119184.86111780262,115823.67666829916,3361.1844495034607,-292.20890591066564,20.129271901821554,0.7056317530602527
118135.80857284597,114704.93592421614,3430.872648629819,-300.7560567841283,20.154035808072432,0.7054502593238733
117098.67195686807,113597.97022240871,3500.7017344593587,-309.4587706725579,20.177972366456803,0.7052310629564759
116073.32947780783,112502.65836288016,3570.6711149276684,-318.3296350837336,20.20107464546829,0.7049740421901848
115059.74470153062,111418.98739794454,3640.7573035860837,-327.39206837594975,20.223349053070585,0.7046796768112668
114057.81215046828,110346.86654314537,3710.9456073229017,-336.66372708027484,20.244791407681923,0.7043468752802577
113067.36258371749,109286.1348228562,3781.227760861288,-346.11487926897826,20.265404003407266,0.7039758742294504
112088.20249367991,108236.61165531371,3851.590838366199,-355.75265634665266,20.285187298930104,0.7035666926433469
111120.33027894581,107198.30242435452,3922.0278545912843,-365.6099201242905,20.304146033329626,0.7031198617002598
110163.67521619934,106171.16658724866,3992.5086289506776,-375.66329173959093,20.3222792941957,0.7026350571008081
109218.06859625246,105155.03258283464,4063.0360134178227,-385.8931906346115,20.339592117267323,0.7021125518702319
108283.40105767739,104149.81620610804,4133.584851569355,-396.34179320035037,20.35608604039212,0.7015519887349947
107359.55846931647,103155.40276415835,4204.155705158118,-407.00129562744405,20.371773010129495,0.70095400750241
106446.37226956213,102171.64696399552,4274.725305566603,-417.88503424357623,20.386655213174805,0.7003185953109695
105543.67002906237,101198.37866539462,4345.291363667751,-428.9419349192176,20.400744573843316,0.6996470438606422
104651.39233871926,100235.55307462685,4415.839264092411,-440.22358483984135,20.414044731239297,0.6989385360615197
103769.40196797968,99283.04251816463,4486.35944981505,-451.73987292754464,20.426566345742447,0.698194032316383
102897.58866192377,98340.75145164365,4556.83721028012,-463.5504260265734,20.43830754283437,0.6974122215558802
102035.89485348464,97408.62357671413,4627.27127677051,-475.6692300045397,20.449275626088497,0.696594179363883
101184.18408848882,96486.54330902234,4697.640779466488,-488.0795696855639,20.459480973356555,0.6957395026911323
100342.421420141,95574.4743105427,4767.94710959831,-500.7087622527033,20.468931533179983,0.694849500584699
99510.39658274676,94672.21977990739,4838.176802839364,-513.5769989991095,20.477628859229956,0.6939230671107687
98688.06212983174,93779.73452916868,4908.327600663068,-526.6493629860342,20.485591723780253,0.6929619819419544
97875.24456105541,92896.86501800624,4978.379543049177,-539.9900539020309,20.492818622781872,0.6919647841226132
97071.89482446802,92023.57320693001,5048.321617538003,-553.5611365567311,20.499326146815683,0.6909325710441476
96277.9431646553,91159.79999987723,5118.14316477807,-567.4566336528515,20.505116758570438,0.689864750005604
95493.19798412883,90305.34831476482,5187.849669364007,-581.6301924482104,20.510202946679378,0.6887621776738752
94717.55439633552,89460.1334073344,5257.420989001105,-596.1733970106579,20.51459205786251,0.687625426358195
93950.84741924959,88623.98086144649,5326.866557803107,-610.9756505012047,20.518287781415957,0.6864538040846403
93193.06092071086,87796.89617494219,5396.164745768679,-626.0791839763406,20.521304729788106,0.6852483317014194
92444.13471310041,86978.80493958837,5465.329773512049,-641.4457618863089,20.523651336048875,0.6840077994377811
91703.92356695593,86169.60050718203,5534.3230597739075,-657.0994908570428,20.525350290971982,0.6827346972531924
90972.28814932371,85369.1221063855,5603.1660429382,-673.0064619695186,20.52640205622598,0.6814276570404556
90249.1379377455,84577.3150023453,5671.822935400191,-689.1732810754911,20.5268178111712,0.6800878759298074
89534.38830901173,83794.06723545348,5740.321073558247,-705.555986067804,20.5266101942776,0.6787147388934568
88827.88494849479,83019.27085962726,5808.614088867523,-722.1369927068008,20.52578976328914,0.6773094335029036
88129.59367205347,82252.85349838021,5876.740173673262,-738.9300749255344,20.524377339123653,0.6758718792907631
87439.33662476494,81494.68783631944,5944.648788445505,-755.9344697874039,20.52236840752613,0.6744026028689393
86757.14338457178,80744.76821014602,6012.375174425765,-773.1515298563754,20.519790532767566,0.6729024591585914
86082.82778684313,80002.94389852227,6079.883888320861,-790.6056273669237,20.51663277340511,0.671369864459277
85416.46780593377,79269.27827639403,6147.189529539744,-808.2958719404414,20.51293174599712,0.6698081490606745
84757.75113551569,78543.4775060209,6214.27362949478,-826.2648978568031,20.508672900512824,0.668214629806677
84106.79228335833,77825.65114817598,6281.141135182343,-844.5359669412137,20.503885944334307,0.6665919447965636
83463.30080061292,77115.53594358116,6347.764857031768,-863.0723074484849,20.498568321486612,0.6649387831623969
82827.37529601237,76413.21343115048,6414.161864861896,-881.9434068130795,20.492749807277516,0.6632571255124565
82198.72669637488,75718.41207566984,6480.314620705048,-901.0944004582707,20.486428926859936,0.6615463935850223
81577.34573793712,75031.1014686969,6546.244269240231,-920.5894558149739,20.479631506009753,0.6598078122814571
80963.06654506497,74351.14488312222,6611.921661942744,-940.3406099668355,20.4723501148508,0.6580403383132462
80355.80701123821,73678.45280467939,6677.3542065588335,-960.3900542951305,20.464623578234434,0.6562471328197595
79755.41368214396,73012.87006095937,6742.5436211845945,-980.6924854054814,20.456424428498423,0.6544243228734065
79161.94639573534,72354.4731014055,6807.4732943298395,-1001.3225288462127,20.447804877246696,0.6525767432246842
78575.18686425859,71703.03052352174,6872.156340736851,-1022.187634390546,20.438743459800357,0.6507012497775028
77995.2150545075,71058.64079073662,6936.57426377088,-1043.3653327657958,20.429295856531308,0.6488034264231112
77421.94982413105,70421.21739048036,7000.7324336506845,-1064.7891000417294,20.419424031826452,0.6468770659493316
76855.27771582473,69790.65183577513,7064.625880049598,-1086.5579903697362,20.409183642074538,0.6449294245466364
76295.29484913033,69167.05635928281,7128.23848984751,-1108.5828490189742,20.398544014608305,0.6429552067181471
75741.67323596911,68550.09559525743,7191.577640711678,-1130.9584094092133,20.387552904367606,0.6409605533758279
75194.50540075064,67939.8664032172,7254.638997533446,-1153.5811347531853,20.37618057709995,0.638938110844865
74653.38460509456,67335.95255658444,7317.432048510124,-1176.5228446823312,20.364473367354428,0.636895910017565
74118.54793807131,66738.62432565367,7379.923612417638,-1199.7411489542574,20.352418468701366,0.6348272292109085
73589.59160983744,66147.42611825232,7442.1654915851195,-1223.3045226459508,20.340051331942306,0.6327399723039266
73066.79303290042,65562.69503915758,7504.097993742829,-1247.1562746835407,20.327355601099228,0.6306264748154118
72549.65516453443,64983.86320106739,7565.791963467039,-1271.3569802156999,20.314363257590703,0.6284945930457385
72038.61553112746,64411.45632289237,7627.159208235086,-1295.854754321801,20.301066308069096,0.626337743835209
71533.07886110707,63844.80329559111,7688.275565515966,-1320.6596750121098,20.28749357499673,0.6241645234224428
71033.43157425175,63284.35949085182,7749.072083399936,-1345.7731892254087,20.273635641431078,0.621967718681225
70539.16340555859,62729.55682751754,7809.6065780410445,-1371.1756776468828,20.259523439779542,0.6197544325332689
70050.66490903913,62180.85692088824,7869.807988150887,-1396.8664653181913,20.24514519817621,0.6175193181546758
69567.47449124562,61637.72602339697,7929.7484678486535,-1422.8301893008174,20.230526345215893,0.6152682252307611
69089.90014510536,61100.538432756446,7989.361712348917,-1449.0448940642527,20.21566242536798,0.6129969892219418
68617.48816386615,60568.785733570025,8048.7024302961245,-1475.5393524560495,20.20056948829727,0.6107088225029987
68150.45271685527,60042.74394546227,8107.708771392999,-1502.3270589031745,20.185251424203017,0.6084028514017826
67688.58158733537,59522.135256406116,8166.446330929252,-1529.4077364046243,20.169720887899864,0.606080660079796
67232.02872932723,59007.19467993821,8224.834049389012,-1556.7645624803845,20.153979646522004,0.6037417488863823
66780.48081475688,58497.517809656165,8282.963005100726,-1584.412085524702,20.138039377476314,0.6013852961966538
66334.06501514875,57993.33297973596,8340.732035412788,-1612.307087599882,20.12190319115919,0.5990133840556905
65892.69948827104,57494.43576143467,8398.263726836363,-1640.4616735965246,20.10558590685605,0.5966259812155821
65456.224391905445,57000.78548969817,8455.438902207276,-1668.8773873843602,20.08908632213446,0.5942234628458045
65024.42661762949,56512.05363663887,8512.372980990625,-1697.5984242121922,20.072420495639754,0.5918073090267794
64597.43942685905,56028.48246998133,8568.956956877713,-1726.569527917949,20.05558986424913,0.5893762761316516
64175.10414030871,55549.799070786,8625.305069522708,-1755.831127060519,20.038611585056433,0.5869330039554393
63757.33683066265,55076.03042479271,8681.30640586994,-1785.3614077301463,20.02149121553288,0.58447654175064
63344.245754553136,54607.18593808131,8737.059816471829,-1815.1791203024331,20.00423053467206,0.5820081149269346
62935.54392115968,54143.07497451012,8792.468946649564,-1845.333931001136,19.98684327028092,0.5795267859311745
62531.447848094474,53683.81056840368,8847.637279690798,-1875.8272026060731,19.969323262831654,0.5770337123675692
62131.57297681726,53229.09143653427,8902.481540282994,-1906.6716831846861,19.95168752905019,0.5745291426403464
61736.126180228755,52779.08009274332,8957.04608748543,-1937.8746479931287,19.933938769732652,0.572014739003345
61344.98306109484,52333.68473361363,9011.298327481212,-1969.429525355401,19.916079736186095,0.5694891616256798
60958.047822285764,51892.760876058725,9065.28694622704,-2001.3753400143469,19.89812202263459,0.5669550007618708
60575.176173389795,51456.226162179366,9118.950011210427,-2033.659907804511,19.880058399401168,0.5644093795358703
60196.3033369356,51023.94025428203,9172.363082653568,-2066.3106846536975,19.86190709533543,0.5618562072122999
59821.5444837025,50596.091312492186,9225.453171210313,-2099.3430196878035,19.84366508890823,0.5592936190007366
59450.69564726218,50172.4393579721,9278.256289290082,-2132.711195019074,19.825347559517876,0.5567246093424988
59083.69341537825,49752.907073715425,9330.78634166282,-2166.4470734589268,19.806942519550446,0.5541449073437931
58720.483187386984,49337.46273511941,9383.020452267576,-2200.4439781784895,19.78846957980779,0.5515589204132169
58361.09642526617,48926.11871899742,9434.97770626875,-2234.829187365598,19.769930178665017,0.5489646065529258
58005.71664211703,48519.08288383962,9486.633758277414,-2269.488115147862,19.751342305796587,0.5463664261500109
57654.00217288053,48115.99755732375,9538.004615556772,-2304.558848792163,19.73269861031783,0.5437615649090654
57306.00835741866,47716.92972984318,9589.078627575482,-2339.928391678026,19.714017555724478,0.5411535225360397
56961.80755293915,47321.94604919614,9639.861503743006,-2375.6999534534407,19.695278134115057,0.5385381309646723
56621.31914770289,46930.941818730505,9690.377328972383,-2411.790891439945,19.676507003013498,0.5359204041713764
56284.61114834005,46544.05284672139,9740.558301618663,-2448.240296559001,19.65768602024872,0.5332966420973329
55951.35290640529,46160.823746253525,9790.529160151767,-2484.9920264624525,19.638839196509927,0.5306697395842124
55621.80579143128,45781.68483127084,9840.120960160439,-2522.097881423193,19.61995877378773,0.5280381080226458
