energy,prior,fidelity,mass,psnr,ssim_indices
47496.425802936166,47496.425802936166,0.0,0.0,16.47608715740406,0.2123352359323639
43315.32498912487,43298.16994658053,17.155042544343402,-3.1816930003697053,16.90198232479382,0.22163340378224086
39546.16814558124,39481.00493026529,65.1632153159505,-6.43584613542771,17.321817473399207,0.2310665441643819
36154.66530662199,36015.481963921455,139.18334270053242,-9.765162317606155,17.734752241808845,0.24061521946290998
33108.25792949444,32873.43794371388,234.8199857805602,-13.165610356430989,18.13996515145259,0.25025738320032603
30376.20526121472,30028.1032385334,348.1020226813185,-16.6493021036149,18.536667079775114,0.2599761947718302
27929.53260018896,27454.065541192598,475.4670589963611,-20.206688108562957,18.924110575473637,0.2697513919555252
25741.135922513095,25127.396106707864,613.7398158052292,-23.801966753904708,19.301592561807396,0.27956640551228706
23785.777460158715,23025.66320859792,760.114251560793,-27.451963721541688,19.668470196247586,0.28940896593302695
22040.168301284233,21128.04242907841,912.1258722058237,-31.146685951622203,20.024164102728644,0.2992677490129607
20482.798710059564,19415.16928628616,1067.6294237734019,-34.87398345879046,20.368169375728616,0.3091247431559792
19093.94405312551,17869.157150037976,1224.786903087532,-38.64833003800595,20.70004947466642,0.31896619123086895
17855.649792952583,16473.615714997653,1382.03407795493,-42.49512777244672,21.0194481028169,0.3287773194059207
16751.57862947256,15213.524453111846,1538.0541763607125,-46.428931695525534,21.326095295458977,0.338548776374991
15766.942838261744,14075.174714930388,1691.7681233313554,-50.44727551721735,21.619795255593584,0.34826658802633365
14888.469138699054,13046.17064397554,1842.2984947235148,-54.54516165400855,21.900421635658056,0.35791874674098595
14104.23623161419,12115.283717561368,1988.9525140528222,-58.71587469463702,22.167917794701395,0.3674930664387532
13403.591382264396,11272.390931718148,2131.2004505462482,-62.96162566868588,22.422294704310914,0.3769770302880248
12777.05481602906,10508.401301149886,2268.6535148791736,-67.31337356835138,22.663639834489032,0.3863676155633879
12216.190252870232,9815.146820409642,2401.04343246059,-71.75981180614326,22.892097554325805,0.39565808971430855
11713.52664352216,9185.322663110097,2528.203980412064,-76.28765032533556,23.10785899903649,0.40483910665255346
11262.458128811591,8612.403079054813,2650.055049756778,-80.88314907345921,23.31116601048725,0.41390113076409524
10857.140119238042,8090.549137988077,2766.5909812499644,-85.5357069761958,23.5023064462871,0.4228320092579039
10492.416789878922,7614.553886688752,2877.8629031901705,-90.25045255431905,23.68160310566524,0.43163159216048014
10163.75005220703,7179.780086764205,2983.969965442823,-95.0255506131216,23.849409181468264,0.4402897009009206
9867.139816750867,6782.093551553339,3085.046265197528,-99.86522552592214,24.00610558942151,0.44879906208528414
9599.055194774694,6417.802830900448,3181.2523638742455,-104.76265430555213,24.152091065290495,0.4571562413659014
9356.38867508309,6083.62304567996,3272.76562940313,-109.70504545624135,24.28777858933161,0.46535260040373877
9136.395636096839,5776.617850063867,3359.777786032972,-114.68765456235269,24.413589467874072,0.47338311388045734
8936.657274034504,5494.166067044678,3442.4912069898264,-119.70654449402355,24.529952274630148,0.4812459622642866
8755.040281965861,5233.933831800579,3521.1064501652822,-124.76411396008916,24.63730014725155,0.4889350443543264
8589.656100939932,4993.832377991972,3595.8237229479596,-129.85347079485655,24.73606550084086,0.49644547598713284
8438.834096957136,4771.991117894394,3666.8429790627433,-134.9626861572615,24.826677228174173,0.5037748797385927
8301.099259619601,4566.742887093413,3734.3563725261884,-140.07920714421198,24.909555850136652,0.5109245342291594
8175.141258659675,4376.590167122628,3798.551091537047,-145.20154812879628,24.985113491113573,0.5178920528012857
8059.794803917544,4200.188151656917,3859.6066522606275,-150.32687730295584,25.053752091828606,0.5246767514611724
7954.021589962199,4036.324754665532,3917.696835296667,-155.44498151837615,25.11586249964673,0.5312786771613407
7856.898700601014,3883.9113696971804,3972.987330903834,-160.54830292775296,25.171823426933862,0.5376976115757288
7767.60415676473,3741.9693983956313,4025.634758369098,-165.63584801228717,25.221999825496017,0.5439338897607805
7685.405838069421,3609.618300450151,4075.7875376192706,-170.7080229286803,25.26674183840214,0.5499883911024376
7609.651019299448,3486.066010889688,4123.58500840976,-175.7704331233399,25.306383872317937,0.5558636082801321
7539.754397209944,3370.5959634859164,4169.158433724027,-180.82577769365162,25.341247023723056,0.5615607118279405
7475.192137945344,3262.559142689951,4212.632995255393,-185.87564480910078,25.371633998804242,0.5670803490318682
7415.494227018035,3161.368506294476,4254.125720723559,-190.9203540564631,25.397834128329656,0.572425852425337
7360.2371200226335,3066.490959820084,4293.74616020255,-195.95803138543852,25.420124074222798,0.5776002693291474
7309.039620953381,2977.441931141867,4331.597689811514,-200.9879535640939,25.43876616603452,0.5826064274765601
7261.5577375309895,2893.7802619885388,4367.777475542451,-206.01141794305295,25.45400856834664,0.5874465795716034
7217.480347230279,2815.103582558254,4402.376764672025,-211.03019217133988,25.466085568462503,0.5921230615999146
7176.526841132873,2741.0455163892702,4435.481324743603,-216.04706689110026,25.47521714845022,0.5966388015684359
7138.4430954832615,2671.2716160995005,4467.171479383761,-221.06300236214884,25.4816116722005,0.6009969479303886
7102.998510965129,2605.4756174406784,4497.52289352445,-226.07663328864146,25.485466767152293,0.6052010985561513
7069.984494894224,2543.3776861517663,4526.606808742457,-231.08633666473906,25.486967953121905,0.6092543443486713
7039.211491637443,2484.7212549673973,4554.490236670046,-236.09173059865134,25.486289628238946,0.6131598126536121
7010.507104086672,2429.2709169543396,4581.236187132333,-241.0941332083312,25.4835962344617,0.616920998740136
6983.71462072653,2376.810715761044,4606.903904965486,-246.09446159692015,25.479042141704937,0.6205419227041667
6958.690789315597,2327.1417713039746,4631.549018011622,-251.09367863635998,25.47277165422965,0.6240260080640486
6935.304544799703,2280.0807611521345,4655.223783647568,-256.0918806278496,25.464920875100287,0.6273769636728098
6913.436045762016,2235.4588113067175,4677.9772344552985,-261.08769584912807,25.45561759350749,0.6305983825840081
6892.975513434174,2193.119785131051,4699.855728303123,-266.07905472337734,25.44498076093145,0.633693874452185
6873.822433450876,2152.919249240416,4720.90318421046,-271.06391861470183,25.433121375049346,0.6366670323182778
6855.884640995717,2114.723629017117,4741.161011978599,-276.0401944790501,25.420143070210667,0.6395214315049209
6839.077739261347,2078.409376060595,4760.6683632007525,-281.00559111568145,25.40614253901959,0.6422603566960424
6823.324249490899,2043.8620629336015,4779.462186557298,-285.9586049951031,25.391210337801894,0.6448871992355705
6808.552795808009,2010.9755963126913,4797.5771994953175,-290.8977826345945,25.375431069141655,0.6474053837015831
6794.697449433712,1979.6512421370703,4815.046207296642,-295.8210729387356,25.35888360998546,0.6498184219472313
6781.697437322648,1949.7971500369767,4831.900287285671,-300.72620248026215,25.341641417423748,0.6521296969982777
6769.496649948097,1921.3278638772128,4848.168786070884,-305.6115802471759,25.32377280265812,0.6543421765629541
