energy,prior,fidelity,mass,psnr,ssim_indices
264725.8773122496,264725.8773122496,0.0,0.0,16.481432632364037,0.35546388706181903
261916.5169547747,261915.37524348943,1.141711285286838,-0.5158086274750531,16.549798165367463,0.35724626722412606
259126.76126176372,259122.210686731,4.550575032713121,-1.0673990597133525,16.618202004225566,0.3590312035288054
256357.13064380793,256346.92945570586,10.201188102073207,-1.645265463157557,16.686636874147723,0.3608185982432786
253607.8236755976,253589.75655940696,18.067116190640714,-2.242208494863007,16.755096160316928,0.36260782126419316
250879.10995757344,250850.98828822584,28.121669347595656,-2.834064808615949,16.82357384621021,0.36439874100490055
248171.40391642545,248131.06731923742,40.33659718801384,-3.4449628373258747,16.89206247462076,0.36619137388942713
245484.78603777458,245430.1030092771,54.68302849746901,-4.075774498051032,16.960555507660136,0.36798547953950544
242819.41528287338,242748.28311795802,71.13216491535476,-4.73566597152967,17.029044071864202,0.36978090146136333
240175.40406061176,240085.74928874618,89.65477186557858,-5.422440872876905,17.097521338064485,0.37157728578924726
237553.08000864106,237442.8599780147,110.22003062636959,-6.117141334863845,17.165980034435858,0.3733744009803724
234952.52708525342,234819.7307971136,132.79628813982583,-6.834137953526806,17.234413241074318,0.37517214092079487
232373.89481776507,232216.5424797966,157.3523379684903,-7.569938870612532,17.302812123094068,0.37697029231574125
229817.3967937121,229633.53964454355,183.85714916854633,-8.335999676259235,17.37116732521843,0.37876883864931354
227283.15666835345,227070.8806554838,212.27601286963767,-9.124233274604194,17.439472160828885,0.38056770047396093
224771.22345325036,224528.6473054521,242.57614779826437,-9.928608078160323,17.507717597557587,0.3823666977317644
222281.65303425826,222006.9278176434,274.7252166148812,-10.764200898935087,17.575897043410485,0.38416549361000424
219814.53611605443,219505.8461798774,308.68993617701443,-11.621810664772056,17.643999859850524,0.38596334078414424
217369.7262229944,217025.28829132175,344.43793167265187,-12.48400447005406,17.712020651658527,0.38776027757027487
214947.35920864588,214565.4228631829,381.93634546296965,-13.350797866703942,17.779950260141707,0.3895563340736858
212547.4939867807,212126.3457410627,421.1482457180245,-14.207081822503824,17.8477823613732,0.39135192527215984
210170.10090543673,209708.06095774073,462.03994769598773,-15.081758353568148,17.915505626129846,0.39314671547088703
207815.18562530403,207310.60745396177,504.5781713422556,-15.973889534536283,17.98311272851488,0.3949402873194616
205482.68655019312,204933.95742844208,548.7291217510318,-16.895294674206525,18.05059122738658,0.3967326476668703
203172.63518877953,202578.17683974322,594.4583490363161,-17.830445600440726,18.117931804361405,0.3985232214756255
200884.97949413245,200243.24731670032,641.7321774321417,-18.810429938777816,18.185123810674053,0.4003118435545903
198619.8168144816,197929.302233721,690.5145807605762,-19.821328821068164,18.25216059207183,0.40209830714549755
196377.22304703583,195636.455993371,740.7670536648426,-20.854085528000724,18.319031142858012,0.403882722112536
194157.12482863633,193364.67025733844,792.4545712978806,-21.891059900983237,18.38572833007949,0.4056647100831006
191959.40444279969,191113.86346319606,845.5409796036254,-22.927584805351216,18.452238259386228,0.407443781980035
189783.9252878912,188883.92779207116,899.9974958200552,-23.950558296579402,18.51855361708925,0.40922047730644734
187630.6865624804,186674.90088741534,955.7856750650643,-24.961960558372084,18.584661880753877,0.41099426638926095
185499.6159711523,184486.7435821097,1012.8723890425965,-25.939076893148012,18.650554580520705,0.41276477978298537
183390.7891553792,182319.56728357452,1071.2218718046818,-26.9470409360365,18.716217836397604,0.4145322333619396
181304.12895030744,180173.33376793782,1130.7951823696326,-27.992176675237715,18.78164523525854,0.41629675569986596
179239.55682489777,178048.001090551,1191.555734346773,-29.11276796105085,18.84682023639398,0.418057550642066
177197.02788681138,175943.55792712505,1253.4699596863227,-30.248023149964865,18.911733120419925,0.41981445878560514
175176.46530222715,173859.9633306814,1316.5019715457513,-31.412300976051483,18.976372309727253,0.4215671423463137
173177.75968392988,171797.140842881,1380.618841048882,-32.619099480099976,19.04073021186773,0.423315859686258
171200.92217639915,169755.13942301134,1445.78275338782,-33.880578781303484,19.104793361442812,0.42506011560775997
169245.88275252262,167733.92198383776,1511.9607686848628,-35.16345033165999,19.168552917939525,0.4267999372039117
167312.39896111586,165733.28191887317,1579.117042242695,-36.46303361142054,19.231993879748895,0.4285353664442539
165400.41106253327,163753.18876062948,1647.2223019037988,-37.77390246797586,19.295107483199715,0.43026609084903117
163509.74303573184,161793.50058561217,1716.2424501196517,-39.08934265986318,19.357880332313304,0.4319917296507379
161640.14536600045,159853.99290992244,1786.152456078008,-40.42971749207936,19.420304710102116,0.4337123209440401
159791.68477178036,157934.76822930324,1856.9165424771102,-41.789224987325724,19.48236314269223,0.4354271563432184
157964.2196132262,156035.71960848503,1928.5000047411697,-43.18335501779802,19.54404725846588,0.43713658481318235
156157.67369690334,154156.79798688076,2000.8757100225644,-44.601737192308065,19.60533898823462,0.4388398939422806
154371.95587445504,152297.95006036604,2074.005814088998,-46.095890594646335,19.666235211975437,0.44053732369004733
152607.01554716437,150459.1562684803,2147.8592786840636,-47.644882304011844,19.726718335985534,0.4422284934494097
150862.70990063634,148640.31080693586,2222.399093700479,-49.279925257957075,19.786784378543032,0.44391341580896265
149138.99048844163,146841.39674801347,2297.59374042816,-50.91753792040981,19.84641305002721,0.44559196417481184
147435.64581050948,145062.232118001,2373.413692508469,-52.64055584568996,19.90560225647874,0.4472647239221977
145752.4611665526,143302.63801486918,2449.8231516834003,-54.383701019512955,19.964332018818588,0.44893006959560083
144089.253690551,141562.451655364,2526.802035186984,-56.26044961815933,20.022597136385386,0.4505888439419085
142446.04999350407,139841.73258168637,2604.3174118177026,-58.19207324809395,20.080377173703816,0.45224027891637336
140822.8004256186,138140.46533397274,2682.3350916458444,-60.18389427429065,20.137671736896937,0.4538854792363686
139219.18742789136,136458.3649108704,2760.8225170209525,-62.19788413611241,20.19445724287255,0.4555233271697057
137635.11991878157,134795.35650247193,2839.763416309639,-64.27778722997755,20.250733411452334,0.45715442142575774
136070.39771827703,133151.2804995128,2919.1172187642464,-66.36250095820287,20.30647876374516,0.4587781161218169
134524.9909297175,131526.12568397823,2998.8652457392554,-68.45527646224946,20.36169542696133,0.4603953144367063
132998.61282511742,129919.63835800657,3078.974467110845,-70.52329925459344,20.41636284953611,0.4620053074955228
131491.12300872538,128331.69315402569,3159.429854699696,-72.63258743204642,20.47047946742037,0.46360872352752996
130002.37487296999,126762.18004614915,3240.1948268208384,-74.81651418091496,20.52402448437066,0.46520405144837557
128532.1799963632,125210.9318758632,3321.2481204999904,-77.10330102272565,20.577000482355846,0.46679214748482245
127080.3154662892,123677.75625584931,3402.5592104398966,-79.44062994018896,20.629382225956906,0.4683722492622251
125646.78115616027,122162.66708958578,3484.114066574486,-81.85223944479367,20.681170858839472,0.46994520717802724
124231.32667781248,120665.45518691833,3565.871490894143,-84.33068449498387,20.732339208441772,0.4715091286447315
122833.85372877061,119186.02610010002,3647.827628670601,-86.9025638808962,20.782893388121156,0.47306619369561664
121454.20793392345,117724.26291015802,3729.945023765424,-89.53028152527986,20.83280013377616,0.4746136600766309
120092.26282526046,116280.05641938558,3812.2064058748874,-92.21398634224897,20.88207923342138,0.476154154329272
118747.91337658827,114853.33103146368,3894.582345124603,-94.96244561875938,20.93069375689632,0.47768409387300553
117421.00627510218,113443.96427046253,3977.0420046396393,-97.77629590244032,20.978660086494774,0.4792069186430897
116111.28012249895,112051.71772009105,4059.5624024079025,-100.67155621526763,21.02594539775405,0.4807200877537667
114818.66221704136,110676.52322945339,4142.13898758797,-103.65901396103436,21.072562780788466,0.48222598985419385
113542.74857475591,109318.00586841643,4224.742706339489,-106.70219819713384,21.118482476764186,0.4837221353786158
112283.62776788036,107976.26119617104,4307.366571709323,-109.81935613689711,21.163712375741127,0.4852108592942462
111040.84239030076,106650.8598381874,4389.982552113368,-112.99523283191957,21.20822632355813,0.486689968387982
109814.45250016313,105341.86479958773,4472.587700575407,-116.20250931038754,21.252029143524695,0.48816011898659567
108604.11342952978,104048.96750442641,4555.14592510336,-119.4114399109385,21.295097679578042,0.4896197777642291
107409.71747187294,102772.06886398862,4637.648607884312,-122.6839258694672,21.337444537998678,0.49107040796856255
106230.92153141371,101510.8410073018,4720.080524111915,-126.04773736360949,21.37904863271789,0.49251092263886864
105067.82301718189,100265.39126068924,4802.431756492647,-129.49896103708306,21.4199155382299,0.4939417816907899
103920.15476185616,99035.4835136177,4884.671248238457,-133.0291589241242,21.460030375459773,0.4953631775211833
102787.6160418798,97820.82367149633,4966.79237038347,-136.59347210271517,21.499400136471962,0.49677581001925414
101670.13573255771,96621.35517311424,5048.780559443476,-140.18959769973299,21.53800410813096,0.498178759826487
100567.46509063036,95436.84088547237,5130.624205157985,-143.80740574531956,21.575850288763498,0.4995721967802467
99479.51347069902,94267.20785156338,5212.305619135638,-147.44154119398445,21.612922584301867,0.5009550730646251
98406.20152199808,93112.39764673941,5293.803875258669,-151.12706633011112,21.64922931354504,0.5023285760571494
97347.42782483103,91972.32070601618,5375.107118814853,-154.91157681040931,21.684757915259894,0.50369221293872
96303.07040883762,90846.89475944906,5456.175649388567,-158.78737805777928,21.719511616853335,0.5050460120751538
95272.93575022898,89735.91816462026,5537.017585608713,-162.75199020194123,21.753481783841426,0.5063901714119863
94256.87687089649,88639.27912480402,5617.5977460924805,-166.75643302005483,21.78667108030691,0.5077230754089288
93254.77839516073,87556.850685028,5697.927710132736,-170.8891092502745,21.81906817461521,0.5090456602135475
92266.4073173442,86488.4259471096,5777.9813702345955,-175.10791275592055,21.850678708348717,0.5103565689066669
91291.76610262564,85434.00924104603,5857.756861579601,-179.39471557433717,21.881496432922365,0.5116579681004688
90330.55907937424,84393.3280120756,5937.231067298648,-183.73530233971542,21.911525407331133,0.512946852488256
89382.59102680802,83366.18788257809,6016.403144229937,-188.092154587619,21.940768768111795,0.5142263955543184
88447.6298323239,82352.37383362274,6095.25599870116,-192.48059442231897,21.96921556731197,0.5154921760965098
87525.7212191926,81351.93026068238,6173.790958510217,-196.90021282597445,21.996873588799648,0.5167488628241942
86616.57883096409,80364.60030338581,6251.978527578277,-201.34490957169328,22.02373474983076,0.5179916593720221
85720.09201235982,79390.2536267966,6329.838385563207,-205.84861889778404,22.049806383001744,0.5192249914729733
84836.00557350891,78428.67572308927,6407.32985041964,-210.43974649172742,22.075085412076515,0.5204443303700662
83964.28743220464,77479.81663462843,6484.470797576215,-215.14592019078555,22.099570773441435,0.521653310793521
83104.7020241814,76543.45863582866,6561.243388352734,-219.94922119379044,22.123273678047855,0.5228486263214492
82257.13672503737,75619.5043988097,6637.632326227666,-224.85439090791624,22.146187702654807,0.5240333236572557
81421.44493211358,74707.79107356828,6713.653858545292,-229.78639057348482,22.168321276061707,0.5252054630620706
80597.42092097699,73808.1467974876,6789.274123489384,-234.84753874887247,22.18967284183563,0.526365891028675
79785.11013349648,72920.60920653942,6864.500926957058,-239.95364460657584,22.210254452818813,0.5275132845825626
78984.3666048569,72045.06476729819,6939.301837558711,-245.18992810847703,22.230063306858238,0.5286489112845852
78195.23085564471,71181.54342711436,7013.687428530353,-250.458960635704,22.24910458406827,0.5297697820577091
77417.13311926919,70329.49652155317,7087.63659771601,-255.839672922506,22.267373615033407,0.5308774635812668
76650.10121393508,69488.92902277315,7161.17219116193,-261.2334297063062,22.284888294866,0.5319708292987003
75893.82608308176,68659.5627335232,7234.263349558565,-266.7297252729186,22.30164363336671,0.5330515086468455
75148.57662880438,67841.63810414323,7306.938524661155,-272.2069277889095,22.317656170099944,0.534118197586527
74413.77600224846,67034.63648033091,7379.139521917553,-277.81105508154724,22.33291383479171,0.5351715217695278
73689.63806288905,66238.70202180241,7450.936041086629,-283.43497115786886,22.34744025280623,0.5362115565522707
72975.75960107926,65453.54543871777,7522.2141623614925,-289.2267853982048,22.361225030961226,0.537237605458709
72272.31557884536,64679.21263575436,7593.102943091,-295.0450769690797,22.374287862596645,0.5382493814632293
71578.8513112267,63915.40474462453,7663.446566602169,-300.981869548792,22.386615208502466,0.539244598647176
70895.5768999879,63162.179097939275,7733.397802048614,-306.9184037023806,22.39823160702997,0.5402266466209312
70222.13186030941,62419.311848467005,7802.820011842402,-312.9963341258699,22.40912466508083,0.5411903030083551
69558.48054704735,61686.65440215994,7871.826144887406,-319.11876333109103,22.419336324179383,0.5421414377444456
68904.48648934836,60964.184064739275,7940.302424609081,-325.4415038332809,22.428845618792614,0.5430752434903482
68260.26065551976,60251.93273466905,8008.327920850713,-331.82668194547296,22.43768954928317,0.5439958060406495
67625.36334531209,59549.53616934071,8075.82717597138,-338.3871177874971,22.44585318879846,0.5449004897828065
66999.75533170598,58856.88057662168,8142.874755084302,-345.044006680022,22.453366343099628,0.5457897463632118
66383.32185463556,58173.933173356934,8209.388681278633,-351.877422698657,22.46021535360102,0.5466632531328282
65776.07008410909,57500.63567823948,8275.43440586961,-358.79252005467424,22.466426203889505,0.5475203575104267
65177.5745403621,56836.63598126362,8340.938559098477,-365.86463549762266,22.471988794112193,0.5483614396824953
64588.19961483203,56182.241868911784,8405.957745920248,-373.03625930531416,22.476923021295786,0.5491838839930238
64007.2998323676,55536.8474796539,8470.452352713695,-380.35417083161883,22.48122523474781,0.5499911515284973
63435.38914490568,54900.92452612818,8534.4646187775,-387.7445085941581,22.48491701382555,0.5507785376396109
62871.93561904099,54273.97394639022,8597.96167265077,-395.23439924017293,22.487992926503747,0.5515513516854456
62316.93896511106,53655.970068134455,8660.968896976608,-402.7543700246606,22.490493102741617,0.5523050190268833
61769.97421258329,53046.51562575102,8723.458586832276,-410.38113541307393,22.492396090904872,0.5530430339352299
61231.30486366845,52445.85622455421,8785.448639114233,-418.0446147797047,22.493753708978097,0.553763638205806
60700.685292758935,51853.7877835482,8846.89750921074,-425.8635733235278,22.494530158740055,0.5544660674703688
60177.89379058169,51269.996428192186,8907.897362389507,-433.78787187248236,22.494775535768742,0.555151096817287
59663.02826843061,50694.6886434468,8968.339624983804,-441.8741405341425,22.494459112821616,0.5558163739844438
59156.01975004155,50127.69740521343,9028.322344828117,-450.0956807186012,22.49364198135212,0.5564649564350915
58656.742333535396,49569.00855876948,9087.73377476592,-458.4395686307689,22.492283279400308,0.5570930237867713
58164.98108203843,49018.30806668848,9146.673015349952,-466.91787736606784,22.490440779677016,0.5577046399278962
57680.67599855121,48475.62004356333,9205.05595498788,-475.49039520759834,22.48806257804439,0.5582926719432693
57203.76447553088,47940.773354784214,9262.991120746663,-484.1524549545138,22.485220231541273,0.5588636156710224
56734.13635720602,47413.79921505084,9320.337142155182,-492.90368413896067,22.481875422056213,0.559413610473674
56271.74762868972,46894.50032583748,9377.247302852244,-501.73996188369347,22.478077178542666,0.5599439042289475
55816.424733428925,46382.829117963745,9433.595615465176,-510.7584915382904,22.473804123859075,0.5604554889674546
55367.902789951084,45878.426090300396,9489.476699650691,-519.9177968486329,22.469092845557878,0.5609465694886834
54926.61648646855,45381.797159545546,9544.819326923003,-529.2626916572917,22.463928056325486,0.5614187368347839
54491.66579398211,44891.9982663019,9599.66752768021,-538.7696292930632,22.45833787518785,0.5618685707004745
54063.457424923756,44409.43087078818,9654.026554135575,-548.4924904070213,22.45232897322884,0.5622984433165152
53641.591452410314,43933.71787133886,9707.873581071459,-558.4582552108332,22.445903987117127,0.5627072413509335
53226.58263596393,43465.356695792965,9761.225940170963,-568.6938509742031,22.439087050937623,0.5630961402478113
52817.559962805615,43003.47835003705,9814.08161276857,-579.1502867562231,22.431863985363997,0.5634638435638898
52414.87103814833,42548.4114027405,9866.45963540783,-589.8211871621315,22.424276510303798,0.5638127289741249
52018.1143724574,42099.77371700824,9918.340655449158,-600.6766455396428,22.416287792291058,0.5641392940294573
51627.67421155033,41657.91953582029,9969.754675730033,-611.8292658693972,22.407956869206473,0.5644460082820778
51242.85472120494,41222.1747415644,10020.679979640541,-623.1647740773042,22.399235772346252,0.5647293049863745
50863.90683557349,40792.731984405254,10071.17485116824,-634.871976264345,22.39019725602357,0.5649953108751101
50490.82863396912,40369.67583081813,10121.15280315099,-646.825653748354,22.38077265013114,0.5652330455568163
50123.61547269631,39952.90246143435,10170.713011261956,-658.9819256949122,22.371049778514994,0.5654525614758555
49761.81269448613,39542.06385787013,10219.748836615998,-671.3574234936386,22.360975769936967,0.5656480447067805
49405.53455103545,39137.14259207571,10268.39195895974,-683.9162740628235,22.35060736178072,0.5658214373395722
49054.65774894918,38738.12896870789,10316.528780241291,-696.7418366913917,22.339912987583617,0.5659709008965473
48709.21376171606,38344.95659869784,10364.257163018225,-709.7482582509983,22.328941938501032,0.566099250235175
48369.007667979895,37957.51395352397,10411.493714455926,-723.0881771153654,22.31766416041506,0.5662045269229531
48034.142230361635,37575.811794992806,10458.330435368827,-736.657213925675,22.306114372384307,0.5662899763053317
47704.328723522485,37199.6630949718,10504.665628550683,-750.5699498858303,22.294269707317387,0.5663474298256485
47379.63235156691,36829.01259720479,10550.61975436212,-764.6625188516919,22.282173547718614,0.5663877287603231
47059.814644878425,36463.74387225595,10596.07077262247,-779.1202789285453,22.26979977875011,0.5663974313789123
46744.50521426727,36103.31689393977,10641.1883203275,-793.8464522742433,22.257180444583557,0.5663925502480028
46434.65665782786,35748.84952953903,10685.807128288825,-808.9490869149449,22.24429102423332,0.5663546767984433
46129.040428261964,35398.95472357379,10730.085704688174,-824.234976330481,22.231161721784094,0.5663021650044455
45828.57490978478,35054.690629662495,10773.884280122287,-839.8698314101202,22.217770190838145,0.566215263046554
45532.46020834289,34715.094212743374,10817.365995599515,-855.7660229954636,22.204150532039584,0.5661138437734446
45241.303243736766,34380.952737268126,10860.35050646864,-872.0088207962108,22.190273385949876,0.5659749952105458
44954.67835988529,34051.61959624092,10903.058763644378,-888.5814733920852,22.176193244205813,0.5658275374233872
