energy,prior,fidelity,mass,psnr,ssim_indices
68414.00821162721,68414.00821162721,0.0,0.0,26.02954134752555,0.47038407941071886
66345.48056286709,66344.63299993704,0.8475629300474423,3.0416508316993713,26.236477785821045,0.4794023827634038
64317.24512149479,64313.88858341132,3.3565380834684504,6.131517042696942,26.444340224933775,0.48861542423562376
62331.42928276207,62323.95807560922,7.471207152851249,9.273935969045851,26.652972594373864,0.498020396637125
60389.58947180922,60376.45840073327,13.131071075953388,12.480805118917488,26.862209504422992,0.5076105948541407
58492.997772500436,58472.72712170575,20.270650794683622,15.776780696818605,27.071873208977316,0.5173789138562971
56643.07711324021,56614.25748640252,28.819626837685234,19.172986439662054,27.28177225144333,0.5273161395488483
54840.38738586762,54801.68229750605,38.705088361574354,22.68249287235085,27.49172266783388,0.5374143143406908
53085.57338801454,53035.72017288602,49.85321512852491,26.301332073344383,27.701490254377962,0.5476631969244732
51378.99526473565,51316.80956827482,62.18569646082853,30.050611203478184,27.910853497250955,0.5580514211397638
49720.939072056564,49645.31385049059,75.62522156597383,33.90520597010618,28.119572246087536,0.5685644937021093
48111.47804788159,48021.386227002375,90.09182087921496,37.85050327319186,28.32738519879459,0.5791890481085931
46550.460678160736,46444.955904915594,105.50477324513962,41.898798963055015,28.534025691658982,0.5899115694217902
45037.7934046804,44916.006247201076,121.78715747932164,46.079343822959345,28.739202848419268,0.6007153226887986
43572.98870216578,43434.12993652062,138.85876564515775,50.35225288494257,28.942613392406248,0.6115814233126385
42155.816114645495,41999.17656083204,156.63955381345565,54.756616855447646,29.143937603740653,0.6224903745153076
40785.677076123626,40610.62076621042,175.05630991320334,59.20153499650769,29.34286029123346,0.6334241945106247
39462.11666870849,39268.08601372111,194.03065498737666,63.80951275851112,29.539026240741357,0.6443618957908958
38184.7048106598,37971.21480849628,213.4900021635186,68.48605912533822,29.732104070871074,0.6552829994608446
36952.709686009635,36719.34889616002,233.36078984961503,73.19554507918656,29.92171703194071,0.6661654723605341
35765.31450956344,35511.74319283907,253.5713167243671,78.04122284334153,30.107505512295297,0.6769868084315392
34622.1691283707,34348.10869298349,274.06043538720763,83.00150707224384,30.28911705930824,0.687725707231392
33522.08790225852,33227.334110682415,294.7537915761094,88.01320835453225,30.46619192148778,0.6983611578150583
32464.288206044945,32148.69090063363,315.5973054113156,93.04663454397814,30.638345374061153,0.7088721776593744
31447.846266719942,31111.320033177366,336.5262335425776,98.11712069239002,30.805182730351277,0.7192364849230272
30471.897654555163,30114.399721510323,357.4979330448389,103.30145676911343,30.966324910539935,0.7294321838479162
29535.395334713732,29156.941920273857,378.45341443987667,108.67998789821286,31.121405267779274,0.7394383962723271
28637.582790233744,28238.238399731872,399.3443905018735,114.19507636252092,31.270084840021962,0.7492385324543047
27777.252714334434,27357.132194335576,420.1205199988576,119.91099733836018,31.41203950523472,0.7588147481892289
26953.154883920895,26512.40688008663,440.748003834265,125.7739503790508,31.54698631677252,0.7681485056275615
26164.268863508743,25703.074426448908,461.1944370598341,131.73104626766872,31.674606488615247,0.7772224388799388
25409.530869733924,24928.105828611373,481.4250411225495,137.73234951059567,31.794620496580986,0.7860204246391108
24688.277343761303,24186.868529153064,501.4088146082391,143.92932606919203,31.90684994253924,0.7945346832649226
23999.285193677315,23478.176572340202,521.1086213371133,150.36617510870565,32.011091455627025,0.8027521119352654
23341.27347230601,22800.76828252099,540.5051897850211,157.01744975399924,32.10723980064814,0.8106697820401002
22713.38235830047,22153.80274507025,559.5796132302215,163.94560806418303,32.195114537692774,0.8182707199583844
22114.524714913998,21536.21572595252,578.3089889614785,171.15209998225328,32.274604075670716,0.8255508288543799
21543.806614919682,20947.13244988562,596.6741650340628,178.57114187051775,32.34566013358314,0.8324994804086048
21000.32330581412,20385.645880541866,614.6774252722549,186.20682917151134,32.4082695421796,0.8391182347082223
20483.46022906473,19851.176086769094,632.2841422956367,194.04871372884372,32.46251346576865,0.8454020150957513
19992.174926348976,19342.69133489681,649.4835914521676,202.17898516939022,32.50851117249315,0.8513566149009862
19525.223121245777,18858.94732504751,666.2757961982687,210.45366994285723,32.546405225552235,0.8569800466662546
19081.30562380691,18398.654721160183,682.6509026467277,218.84136817080434,32.57635396156473,0.8622787912421949
18659.767886475853,17961.141335809443,698.6265506664098,227.40639667550568,32.59854934865003,0.8672529548578348
18259.454590929246,17545.282914146035,714.1716767832102,236.08279163768748,32.613188142603406,0.8719105589900993
17879.86123348221,17150.546457192788,729.314776289423,244.93753565120278,32.6205462455344,0.8762526119793806
17519.884128262147,16775.859987518503,744.0241407436445,253.8734501420986,32.620854110264176,0.8802913665238155
17179.436579190908,16421.088461937663,758.3481172532439,263.2010324076982,32.61441896165606,0.8840284337713725
16856.924895011507,16084.678996502475,772.2458985090335,272.66195306990994,32.60150129205877,0.8874793643943374
16551.961566894504,15766.194047312172,785.7675195823306,282.3748371193651,32.58242276424651,0.8906480039088939
16262.984615186544,15464.11199148417,798.8726237023748,292.33979776577326,32.55755129674196,0.8935497610546713
15989.829895095725,15178.190419818751,811.6394752769744,302.5860393490293,32.527101281838505,0.896187502221396
15730.876835928868,14906.874798286772,824.0020376420955,313.01495701802196,32.49144200904884,0.8985784238506817
15486.315176397771,14650.225874169708,836.0893022280641,323.6515869219438,32.45082694504135,0.9007281338516632
15254.931277373715,14407.144267204394,847.7870101693208,334.499041567673,32.405566549709576,0.9026510208812359
15035.542281556316,14176.3221554027,859.2201261536152,345.6570444079116,32.35594963408367,0.904354725119791
14827.55169663821,13957.229780684287,870.321915953923,356.99669120734325,32.30228638144293,0.9058544775597154
14630.58532886483,13749.419115128041,881.1662137367896,368.50364147668006,32.24484655148575,0.9071576521846113
14444.250913341317,13552.514562098671,891.7363512426451,380.23463585641,32.18379428061827,0.9082720920609905
14267.896139707203,13365.817048664721,902.0790910424818,392.2307211707812,32.1194483747057,0.9092109099783167
14101.01567403816,13188.838722353908,912.1769516842527,404.3718091651099,32.05212768001065,0.9099920146623468
