energy,prior,fidelity,mass,psnr,ssim_indices
27841.411725518923,27841.411725518923,0.0,0.0,20.005346221981796,0.1824249915551872
24816.906217708318,24804.455537582835,12.45068012548255,0.1660408159950748,20.53290899603094,0.19542836582585163
22146.249879505896,22099.425677328185,46.82420217771068,0.2962555757840164,21.053000232729797,0.2091552785420978
19794.882402150568,19695.88711613595,98.99528601461984,0.3717864637146704,21.56415696641469,0.22359256951341233
17730.11389658056,17564.831097218805,165.2827993617529,0.4211025766999228,22.064951912913102,0.23871900039019509
15921.352782349522,15678.923588584134,242.42919376538927,0.43828370423580054,22.55401324430394,0.2544972660895288
14340.167968447118,14012.58683109876,327.58113734835797,0.4101374321762705,23.030047767203303,0.2708780260540106
12960.306777668884,12542.037913952594,418.2688637162904,0.30150364837027155,23.491869309784082,0.28781231974408905
11757.774004163375,11245.39373605631,512.3802681070644,0.11975978284317534,23.938409548575805,0.305228242835047
10710.852303089849,10102.720672930815,608.1316301590342,-0.1092931663733907,24.36873315831853,0.32302420742858673
9799.954814252764,9095.909855779899,704.0449584728647,-0.38565079170803074,24.78204940725814,0.3411178062541313
9007.553188539856,8208.63312352348,798.9200650163762,-0.7007459950837074,25.177727289792134,0.3594146478754754
8318.083796252835,7426.276025951358,891.8077703014776,-1.0657612952636555,25.555281835052604,0.37782311606203195
7717.839763064726,6735.861630272502,981.978132792224,-1.4943725999764865,25.914373651082375,0.39623939955303156
7194.81502791727,6125.923725456888,1068.891302460382,-1.990600734920008,26.25480514956136,0.41456528157753053
6738.532952497364,5586.363269597471,1152.1696828998931,-2.555167993865325,26.576507916609145,0.4327087117694888
6339.899068139158,5108.323234738189,1231.5758334009688,-3.200963142036926,26.879540757356907,0.4505974082719599
5991.050551856366,4684.069632822262,1306.980919034104,-3.924546165668289,27.16407521816489,0.4681587690011317
5685.199585618972,4306.845780979507,1378.3538046394654,-4.709209955501137,27.430385321834272,0.48532519135730695
5416.517458944316,3970.7845690253457,1445.7328899189697,-5.5356103869271465,27.678828870299963,0.502047360680631
5180.005987530348,3670.79799851824,1509.2079890121076,-6.397361009687302,27.90983990059005,0.5182776497116323
4971.36758819041,3402.4594852194464,1568.9081029709637,-7.287030553634395,28.12392692488538,0.5339795019867345
4786.913980321881,3161.9222719588543,1624.9917083630269,-8.196776404889533,28.321649254635854,0.5491266974679033
4623.478980476444,2945.842513694145,1677.6364667822986,-9.121826055037673,28.503610163690425,0.5637031042879704
4478.342157658834,2751.3109705572297,1727.0311871016045,-10.058157634615782,28.670448776736507,0.5777005269681718
4349.1686132575915,2575.7993814167635,1773.3692318408282,-11.001485562388552,28.82282935577387,0.5911169639062486
4233.954000846355,2417.1117890470528,1816.8422117993018,-11.951388989255065,28.961433555778697,0.6039531020956311
4130.973834302833,2273.3393286125074,1857.634505690326,-12.90075084932323,29.0869554795036,0.6162146920558925
4038.735749259218,2142.812302255855,1895.9234470033637,-13.84245274742716,29.20009472496269,0.6279096541537035
3955.949924990876,2024.0719294711037,1931.8779955197724,-14.768469486152753,29.301548793598826,0.6390514644229133
3881.497810550637,1915.839129675219,1965.6586808754182,-15.677000964686158,29.392008324671455,0.6496552583514649
3814.4079389563512,1816.992928247094,1997.415010709257,-16.565962095701252,29.472150570385594,0.6597378644868654
3753.8370700355895,1726.5505448867073,2027.2865251488822,-17.432559784749174,29.542632650700355,0.6693178908988692
3699.051694513322,1643.647252444429,2055.4044420688933,-18.27126612898428,29.604087507791608,0.6784135174571242
3649.411166439978,1567.5204670291077,2081.89069941087,-19.07603227160871,29.657126571299504,0.6870442030790662
3604.354401985624,1497.4958025409305,2106.8585994446935,-19.83796946743678,29.702339101063163,0.695229262504138
3563.391220020519,1432.9787083725269,2130.4125116479922,-20.55275527021149,29.740287721519945,0.702987789936352
3526.0917027294295,1373.4432581816263,2152.648444547803,-21.218748994724592,29.771508706596826,0.710338378388629
3492.0767325236416,1318.421080780609,2173.6556517430326,-21.83371948308195,29.79651033544583,0.7172997777836789
3461.0114475310734,1267.4940792442753,2193.517368286798,-22.400463410944212,29.81577135189977,0.7238903048632371
3432.5999161689747,1220.2886822540008,2212.311233914974,-22.919180472192238,29.82974235905663,0.7301276907532864
3406.58147903244,1176.472206691018,2230.1092723414217,-23.387344749469776,29.838845570608434,0.7360288967645475
3382.725754444601,1135.7478239293878,2246.9779305152133,-23.79932745837141,29.843476435952795,0.7416102703750932
3360.8286045927543,1097.8500391594328,2262.9785654333214,-24.15081179710978,29.844006687785555,0.7468875705992085
3340.707866365443,1062.5399161148841,2278.167950250559,-24.440425267544924,29.84078807267155,0.7518762650355181
3322.20081105974,1029.601954319845,2292.598856739895,-24.668501675332664,29.834150144678247,0.7565912073682247
3305.161663347548,998.8411428327737,2306.320520514774,-24.83478302299045,29.824398948059347,0.7610466724772192
3289.4602591762878,970.08156307695,2319.378696099338,-24.939062447621836,29.811819370061173,0.7652563775899578
3274.9794694103857,943.1635579354858,2331.8159114749,-24.98116147320252,29.796675997722136,0.7692331730526109
3261.6143186436248,917.9425282296672,2343.6717904139578,-24.96118807622406,29.779212781059087,0.7729892963360309
3249.270370846149,894.287050112068,2354.983320734081,-24.87904644588707,29.759654848157044,0.7765367128007593
3237.862549159393,872.077649423399,2365.784899735994,-24.734692496829666,29.73821174471086,0.7798865529176453
3227.3140546011455,851.2055644091772,2376.1084901919685,-24.528657186048804,29.715077517114654,0.7830496639603854
3217.5554081205582,831.5715211994814,2385.983886921077,-24.261400515111745,29.690431552211955,0.7860361020619648
3208.5234937668943,813.08459495752,2395.438898809374,-23.93300849078514,29.664440122521114,0.7888554812493721
3200.1610175484857,795.6615491549492,2404.4994683935365,-23.543181755609112,29.63725665111876,0.7915171477489333
3192.4159913747235,779.2262656885993,2413.1897256861243,-23.090410578006413,29.60902245764681,0.7940296758087136
