energy,prior,fidelity,mass,psnr,ssim_indices
160171.14816040473,160171.14816040473,0.0,0.0,16.474717729296433,0.22618250722488212
158367.88998696336,158367.1586164846,0.7313704787496801,-1.6909810085198842,16.54549901750704,0.2275260270036016
156577.42129381094,156574.5064143893,2.9148794216509972,-3.381785721227061,16.616393631454507,0.22887607470239069
154800.0451200449,154793.5112206391,6.533899405810081,-5.07594976661494,16.687397366017986,0.23023275674355317
153035.97776586373,153024.4065768375,11.571189026238569,-6.757965445227455,16.758505079202525,0.23159612002146154
151285.33689202566,151267.3278282436,18.00906378206603,-8.433507261332124,16.829711656906554,0.2329663744885926
149548.35349653615,149522.5243497959,25.829146740250746,-10.10540295985993,16.901012902243366,0.2343434818985625
147825.12704749932,147790.11402197252,35.01302552678862,-11.784251463715918,16.97240433634387,0.23572758078302072
146115.8717074355,146070.33054600394,45.54116143155374,-13.45274302182952,17.04388192930945,0.23711862932994854
144420.69767426306,144363.30428752294,57.39338674010891,-15.120868053927552,17.115440379776686,0.2385168429443484
142739.7325961906,142669.1819538983,70.55064229229174,-16.808972371916752,17.18707494181273,0.23992236374673892
141073.08827555258,140988.09682200933,84.99145354325861,-18.50286485272227,17.2587814096746,0.24133501243457603
139420.82500138393,139320.1294007726,100.69560061134017,-20.214674927818123,17.330554762996645,0.24275467292296785
137783.04585034953,137665.40429430353,117.6415560459971,-21.93797827383969,17.402388418691466,0.24418141221570436
136159.86477254235,136024.05672202175,135.80805052059856,-23.68436457309872,17.47427660740088,0.2456153208084072
134551.33800292952,134396.1656818273,155.17232110222724,-25.454896514769644,17.546214328208933,0.2470564097407508
132957.57961119508,132781.86638094092,175.71323025415552,-27.250920865044463,17.61819725768951,0.24850467695601186
131378.51547867607,131181.10809867093,197.40738000513647,-29.047966021462344,17.690217842853315,0.24996013884774057
129814.07075417595,129593.83567266504,220.23508151090664,-30.864530966733582,17.76226985993037,0.25142284082318545
128264.24343523034,128020.06917257233,244.17426265801234,-32.69699695322197,17.834348684400577,0.25289342650804125
126729.04240696486,126459.83939239857,269.20301456629363,-34.56297289917711,17.906449337502398,0.25437178209115946
125208.48248520294,124913.18318198384,295.29930321910035,-36.43657139618881,17.97856330555863,0.25585794673707424
123702.63343176873,123380.19429547578,322.4391362929473,-38.332275106571615,18.050684606745985,0.25735223738902085
122211.58864525886,121860.98803570504,350.6006095538128,-40.22980975289829,18.122805904652587,0.258854577857071
120735.26308261565,120355.5045524797,379.75853013595565,-42.1255537130055,18.194921828896355,0.2603651829821236
119273.6010602259,118863.70800065255,409.89305957334824,-44.00932621542597,18.267025235889612,0.2618841423888143
117826.6487619436,117385.6696301051,440.97913183850216,-45.92203169321874,18.339109230339435,0.2634114020842601
116394.44487878746,115921.45130224965,472.993576537801,-47.82553753419779,18.411166043436438,0.26494718352602953
114977.00070663402,114471.08838085661,505.91232577740476,-49.76488078117836,18.483188817139897,0.2664917132029148
113574.36872994964,113034.65816389862,539.710566051019,-51.7032289384515,18.555171055422136,0.26804474829276537
112186.55521641044,111612.19103493654,574.364181473909,-53.684631943295244,18.62710719134189,0.26960678615080624
110813.53967228152,110203.69078573298,609.8488865485382,-55.69340660335729,18.69898861010843,0.27117740672835583
109455.24126254399,108809.10113365739,646.1401288866016,-57.75212902366184,18.770810450397857,0.272757371797349
108111.52695230166,107428.31068523364,683.2162670680207,-59.79852569079958,18.8425627648297,0.27434662479920097
106782.42764526226,106061.37170980164,721.0559354606208,-61.86741909343982,18.914238881100577,0.27594564128647325
105467.91061201772,104708.27941431728,759.6311977004335,-63.90231581509579,18.98583227491933,0.2775544851013372
104167.8695642197,103368.94444680322,798.9251174164825,-65.96059190534288,19.057336089632752,0.2791730433045103
102882.12411440222,102043.21298042541,838.9111339768068,-68.03809668507893,19.128735519001832,0.2808012432769822
101610.64488569536,100731.07212926215,879.572756433226,-70.15715484827524,19.200023435392154,0.2824390378989142
100353.43910950326,99432.56058034126,920.8785291619986,-72.26587280619424,19.271190307784973,0.28408724637135324
99110.42546401006,98147.61296687103,962.8124971390217,-74.40543547109701,19.342232636380057,0.2857459849579335
97881.41413131988,96876.06624013252,1005.3478911873533,-76.55159359611571,19.41313608117671,0.28741483548690744
96666.41728427148,95617.94593829296,1048.47134597851,-78.72446340956958,19.483895387955155,0.28909496465166545
95465.32214332004,94373.16988122136,1092.152262098678,-80.9042850441183,19.554500123866703,0.2907865100791227
94278.1020896998,93141.72938883149,1136.3727008683106,-83.12140218523564,19.62494223216757,0.2924894712785438
93104.57627088782,91923.46438007549,1181.1118908123253,-85.34000320621999,19.695207868023537,0.2942033453353834
91944.60712416978,90718.25307705654,1226.3540471132505,-87.62805765453959,19.765290306043312,0.2959288694984648
90798.2330210222,89526.16390515844,1272.0691158637592,-89.96405276091537,19.835176664346726,0.29766612113820295
89665.34629131442,88347.10782578497,1318.2384655294488,-92.3718565236777,19.9048633147745,0.29941574310776886
88545.98071814499,87181.1400777854,1364.8406403595825,-94.77330955164507,19.974336429596974,0.3011778353515415
87440.02423818465,86028.16983100506,1411.8544071795857,-97.19651484530186,20.043591598312474,0.3029521011545436
86347.44744857718,84888.18806877581,1459.2593798013668,-99.62102686183061,20.112612879425733,0.3047393447347662
85268.03668555635,83761.00264083805,1507.0340447183037,-102.09437047352549,20.18139903317873,0.3065401441143745
84201.61649841437,82646.45199186965,1555.1645065447174,-104.5645459483494,20.2499307596284,0.3083543887331445
83148.17172212662,81544.53791915308,1603.6338029735327,-107.06616535159992,20.31820506762374,0.3101826903308717
82107.63440743055,80455.21753815893,1652.4168692716148,-109.5578459763201,20.386202438984242,0.3120250282676325
81079.92191564181,79378.42305083091,1701.498864810897,-112.08388776733773,20.453920780296514,0.31388210563023705
80065.07746325606,78314.22517100742,1750.8522922486516,-114.60552686825395,20.521342119185096,0.31575403026442983
79062.98729839474,77262.52730949814,1800.4599888966056,-117.18551332328934,20.58846583281202,0.3176412711513144
78073.52101855283,76223.22141138959,1850.2996071632413,-119.74697972199647,20.655274864569442,0.3195442229388361
77096.61605744652,75196.25088016597,1900.3651772805451,-122.33191388106206,20.72176129286977,0.32146324069308174
76132.10330544811,74181.47941606527,1950.6238893828438,-124.90237701038131,20.787907012374802,0.32339842432867116
75179.86284803755,73178.7915478622,2001.0713001753495,-127.48862469260348,20.853707991880967,0.3253497494108252
74239.80223692696,72188.11867903596,2051.6835578909963,-130.07500992377754,20.919144359047394,0.327317583831082
73311.72496851272,71209.2706870976,2102.4542814151264,-132.7430183509714,20.984213421123354,0.3293024109916103
72395.616048656,70242.26265483255,2153.353393823448,-135.42838581517572,21.048896958247134,0.33130457235876687
71491.40576476252,69287.0316579489,2204.3741068136205,-138.19017172354506,21.113195360302093,0.3333245513067904
70598.92217524638,68343.43245981114,2255.489715435235,-140.9187089362531,21.177087641796053,0.3353621240082488
69718.07783608073,67411.38206631843,2306.6957697622956,-143.69616182002937,21.24057295288257,0.3374181521413017
68848.8064321183,66490.84383062646,2357.962601491843,-146.47784093325026,21.303636487200556,0.33949204346211054
67990.92775270085,65581.6427693223,2409.2849833785576,-149.35312032490037,21.36627636108738,0.34158503899066894
67144.38577930655,64683.750348146496,2460.635431160066,-152.25453626021044,21.428476169344584,0.343696942376531
66309.05718113793,63797.040764906844,2512.016416231095,-155.26664499239996,21.490219290136892,0.34582800222807664
65484.92240765365,62921.51643857797,2563.4059690756762,-158.32838275656104,21.55149180224559,0.34797882052021895
64671.7873111395,62056.98843924855,2614.7988718909555,-161.51840354135493,21.6122889394955,0.3501506361902668
63869.602544098416,61203.43105811405,2666.171485984366,-164.79651317326352,21.672599758839112,0.3523422684380629
63078.34744713704,60360.832859959235,2717.5145871778086,-168.16158421122236,21.732409102215435,0.3545542944607502
62297.85261327253,59529.043438104134,2768.809175168398,-171.5688952471828,21.7917143997885,0.356787417501736
61527.99901635876,58707.950244416876,2820.04877194188,-175.03744258376537,21.850499942417883,0.3590417266799801
60768.690606815515,57897.479016282814,2871.2115905327014,-178.55678135843482,21.90876646169416,0.36131906302648026
60019.914053634144,57097.62038613091,2922.2936675032356,-182.14422032306902,21.96648445682834,0.3636183567656823
59281.49021718299,56308.22307403594,2973.2671431470526,-185.79079883394297,22.02366249804949,0.365941056326319
58553.31531157529,55529.1794702526,3024.135841322684,-189.52049561502645,22.080272884222097,0.36828597111986827
57835.23640720785,54760.35789711203,3074.8785100958225,-193.3035642117611,22.136317623457277,0.37065426827140185
57127.251563553276,54001.75555121303,3125.4960123402475,-197.14131428918336,22.19177455502247,0.37304564207663
56429.08090776318,53253.103295186775,3175.977612576405,-201.09004003804876,22.24664515136301,0.37546104834273525
55740.795357162875,52514.47478731937,3226.320569843504,-205.1548706101603,22.300909487913945,0.3778998901124338
55062.10223937073,51785.59953309609,3276.5027062746417,-209.3301799678011,22.354576460081255,0.380364489886932
54392.965674918116,51066.447108132714,3326.518566785404,-213.5653708849568,22.40761760503782,0.38285286165654936
53733.22576436192,50356.869349862696,3376.356414499228,-217.86166601785226,22.460036951281623,0.38536760733368475
53082.823114962346,49656.81017061387,3426.0129443484802,-222.2011861470528,22.511815933544923,0.3879080971765239
52441.56275384799,48966.08996770548,3475.4727861425094,-226.58432309073396,22.562953508106986,0.3904749067950819
51809.40337241385,48284.66708043742,3524.7362919764278,-231.04037969728233,22.6134337678769,0.3930667392415524
51186.27654704904,47612.486982875045,3573.7895641739983,-235.58527842600597,22.663252149498096,0.39568446556100745
50572.13750174317,46949.519877382816,3622.6176243603527,-240.16959268576466,22.712396807557237,0.39832879084098777
49966.82261194173,46295.59468555368,3671.2279263880505,-244.77819141326472,22.76086956235586,0.4009992379005259
49370.21119509045,45650.61339768434,3719.597797406106,-249.38022116495995,22.80865563508291,0.4036969523419496
48782.106238682005,45014.368547423444,3767.737691258561,-253.95055940392194,22.855742223899775,0.40642073727720907
48202.66126184792,44387.03288307465,3815.62837877327,-258.50471941381693,22.90212314335255,0.40917083916031355
47631.737640863736,43768.4724929645,3863.2651478992348,-263.0797313727671,22.947798056896936,0.4119474294908707
47069.22993619272,43158.60377467996,3910.6261615127614,-267.65672348160297,22.992757162617153,0.41475065402608213
46515.04532708566,42557.323731785764,3957.7215952998945,-272.22687888651853,23.037006846419313,0.4175826752545641
45968.983572093326,41964.46603336384,4004.517538729488,-276.8745256852708,23.080520740328268,0.42044336106162294
45430.85475794887,41379.8035116094,4051.051246339468,-281.5847644073656,23.12331063014613,0.4233321577798714
44900.80224282598,40803.52217447409,4097.280068351886,-286.3773340834887,23.1653613279219,0.4262477872918102
44378.53850857708,40235.30390541147,4143.234603165609,-291.2136461730115,23.206671536226857,0.4291907890491457
43863.98851799029,39675.11442948515,4188.8740885051475,-296.1308389590122,23.247218480669115,0.4321609595358897
43357.1692624881,39122.932944049135,4234.236318438966,-301.11404457950266,23.28700554094307,0.4351582499337101
42857.914754396545,38578.641434244186,4279.273320152356,-306.23009332898073,23.326026184361517,0.43818087602676375
42366.17503888062,38042.15411142274,4324.020927457883,-311.4402280774084,23.36428957245781,0.4412332158060612
41881.60038671663,37513.152687670554,4368.447699046073,-316.8179538430413,23.40177349753974,0.4443115369878834
41404.4246170038,36991.85158918786,4412.573027815937,-322.2884298246936,23.438490492790297,0.4474174820387676
40934.35827349323,36477.98997181979,4456.368301673433,-327.91383387573296,23.474422728364196,0.45054931111547125
40471.417433119976,35971.55416969497,4499.8632634250025,-333.6663287434494,23.509582744133922,0.45370785559002824
40015.41857176945,35472.409885277986,4543.008686491462,-339.5894625498913,23.543958871316374,0.45689066540302276
39566.19278567534,34980.342294281225,4585.850491394115,-345.6112082163454,23.577545735815644,0.4600973909271744
39123.78549960436,34495.44433540522,4628.341164199141,-351.7965712074656,23.610346893358294,0.4633280108583142
38687.95543979932,34017.44171487891,4670.51372492041,-358.1094355068635,23.642354503920938,0.466581718014466
38258.71955049956,33546.38360857495,4712.335941924613,-364.5580211103079,23.67357060127423,0.4698585394579764
37836.02659990659,33082.20226853741,4753.824331369175,-371.075190810021,23.704001551669922,0.4731570872848499
37419.748913953365,32624.805759019757,4794.94315493361,-377.6595909484895,23.733648986742466,0.4764782098491222
37009.799588230286,32174.051018330298,4835.74856989999,-384.3605121605797,23.762488532284745,0.4798205241069766
36606.15332113686,31729.970327006184,4876.182994130675,-391.14975835214136,23.790541509821736,0.4831835965234966
36208.85814205798,31292.556378791916,4916.301763266062,-398.11271657346515,23.817781392038487,0.48656491257790835
35817.5499425749,30861.520062708558,4956.029879866341,-405.0918429958401,23.844242416718853,0.4899670594565815
35432.48136809843,30437.026428717712,4995.454939380719,-412.1019419779186,23.869889917176103,0.4933860090980821
35053.31630230549,30018.83495467766,5034.481347627831,-419.10508365690475,23.89477253297664,0.4968234167420622
34680.296893365885,29607.11379288098,5073.183100484908,-426.1796743012965,23.918872549746087,0.500277803290547
34312.9151348702,29201.40603737861,5111.509097491591,-433.28717673936626,23.94221273583434,0.5037485628440322
33951.42332938732,28801.948874974474,5149.474454412843,-440.5137328969431,23.964778418204684,0.5072328071517385
33595.49481175572,28408.3973738276,5187.097437928125,-447.77097463951213,23.986602084640793,0.5107318176964711
33245.346437713604,28021.01692842084,5224.329509292768,-455.15898970875423,24.00766776819969,0.5142432473523759
32900.59887954653,27639.377746986207,5261.221132560326,-462.5704530632356,24.027978853835002,0.517767469429166
32561.545105039484,27263.818886460365,5297.726218579117,-470.06915948720416,24.047513639750242,0.521299162944135
32227.730961499896,26893.846920744847,5333.88404075505,-477.6308308552834,24.0662968789203,0.5248395728018144
31899.37441036333,26529.699045280617,5369.67536508271,-485.29762097087223,24.084320127287647,0.5283864838444748
31576.240437073448,26171.13529963958,5405.105137433867,-493.08495661831694,24.101607090679313,0.5319369499163837
31258.270090943137,25818.09826512239,5440.171825820746,-500.96670073928544,24.118147637266173,0.5354914475856748
30945.34803342879,25470.458073107402,5474.889960321385,-509.0191208291799,24.133971804861996,0.5390495667904621
30637.434555077445,25128.182004020502,5509.252551056944,-517.2415757401031,24.149073494144805,0.5426139987778158
30334.48828902179,24791.227681192526,5543.260607829263,-525.6344120731228,24.163444887004623,0.5461755480540367
30036.558510751987,24459.678336933794,5576.880173818195,-534.2542067175964,24.17711249739995,0.5497392239728812
29743.6584249746,24133.521232106756,5610.137192867844,-543.1084912709775,24.1900577601832,0.5532984305504617
29455.45848363258,23812.46345105738,5642.9950325752,-552.1534635504358,24.202324639512895,0.5568571355444739
29172.197640830862,23496.66291568377,5675.534725147093,-561.4328534127562,24.213867790349003,0.5604040351704515
28893.411943408886,23185.76441831964,5707.647525089246,-570.9293744489551,24.224754775199834,0.5639494859461772
28619.33372695803,22879.887183964882,5739.446542993148,-580.6004553788807,24.234933094980846,0.5674821341329365
28349.648678018257,22578.82257918882,5770.826098829434,-590.4750816241722,24.24448322645734,0.5710138731971134
28084.583437805108,22282.7238187975,5801.859619007605,-600.5727061764337,24.253364439616064,0.5745324265816314
27823.587549855274,21991.086329654878,5832.501220200396,-610.8767112854403,24.26161279677339,0.5780458031225374
27566.88761444119,21704.094642597676,5862.792971843516,-621.3313795536524,24.269210527585333,0.5815416699895873
27314.395823433322,21421.664660591385,5892.731162841938,-631.9608807842014,24.276183163772824,0.5850283176973313
27066.074769775307,21143.737193062112,5922.337576713195,-642.7356455941335,24.282537241372708,0.5884956149398632
26821.787245818752,20870.24318008408,5951.5440657346735,-653.7660688709002,24.288262531373277,0.5919480211228295
26581.59869005896,20601.12996414875,5980.46872591021,-664.9575994339539,24.29338204200731,0.595376131485003
26345.531185991684,20336.56834832475,6008.962837666936,-676.4806366353878,24.297884767047716,0.5987861959111371
26113.362762221514,20076.210730435145,6037.15203178637,-688.1909651898313,24.301805277423426,0.6021722228188798
25885.141241689376,19820.198057791946,6064.9431838974315,-700.1926867093425,24.305130538870582,0.6055390121697403
25660.713247096355,19568.26688386852,6092.446363227833,-712.3960703652119,24.307902223380758,0.6088789006855344
25440.18588227126,19320.65338336375,6119.53249890751,-724.859429967415,24.310116825874324,0.6121990033706095
25223.469624595018,19077.11503594857,6146.354588646448,-737.5086390026845,24.31178807529333,0.6154894748609903
25010.587777770485,18837.838228053428,6172.749549717058,-750.4274681370007,24.312917082678634,0.6187561425521411
24801.086937218904,18602.19346081719,6198.893476401715,-763.4588469282608,24.31350754477633,0.6219912964210805
24595.32956055926,18370.688293111005,6224.641267448257,-776.8196558529744,24.313558325875782,0.6251952608130423
24393.204519742172,18143.112080328585,6250.092439413588,-790.3800542618264,24.313095400780416,0.6283690458034142
24194.619980919782,17919.435983468964,6275.183997450818,-804.2683811466559,24.312122231813817,0.6315063970203371
23999.609162920497,17699.599979905917,6300.009183014581,-818.3991827658028,24.31066466616349,0.6346134997621595
23807.91339439012,17483.457650103144,6324.455744286978,-832.8984246536274,24.308732332175097,0.6376818267727872
23619.76536393997,17271.126021815595,6348.639342124375,-847.6215421825182,24.306329175202666,0.640718258101942
23434.80739438006,17062.35615451617,6372.451239863892,-862.6890102047473,24.303456449982846,0.6437153722954757
23253.412022379453,16857.391436889477,6396.020585489974,-877.9448623081553,24.30012290337414,0.6466764021277609
23074.837286926035,16655.628318606454,6419.208968319583,-893.5767510118894,24.296331273316227,0.6495975568131679
22899.96502521529,16457.830145720807,6442.1348794944815,-909.3661894735997,24.29209209835188,0.6524800614032892
22727.87040233,16263.148613704456,6464.721788625544,-925.5265307701193,24.2874218863313,0.6553224224743417
22559.2757880819,16072.2757069602,6487.0000811217005,-941.8877651467919,24.282308538355736,0.6581197859738676
22393.18762821162,15884.201323392132,6508.98630481949,-958.6249517380493,24.276809627731517,0.6608783032260641
22230.478961152112,15699.77852840497,6530.700432747141,-975.6121591982082,24.2708740186077,0.6635903398147702
22070.563070782526,15518.514002326301,6552.049068456226,-993.0161056645447,24.26458407963651,0.6662627198091722
