energy,prior,fidelity,mass,psnr,ssim_indices
55661.58836102184,55661.58836102184,0.0,0.0,16.493538524010177,0.14343046591982414
55003.32206918794,55003.05615250225,0.2659166856931337,-0.4489237536326982,16.566296306933857,0.14477065387545077
54349.79299769671,54348.733246794305,1.0597509024083098,-0.900193917521392,16.639228784108344,0.14612588459863782
53701.08991894557,53698.71463383625,2.3752851093130576,-1.356315925841045,16.712335264855305,0.1474963173373228
53057.26521927169,53053.05885061482,4.2063686568762,-1.8257483667766792,16.785612066329744,0.14888194492798515
52418.44599669507,52411.89966636763,6.546330327440372,-2.305184188335261,16.859057534826572,0.15028235661027256
51784.65645341494,51775.26830715087,9.388146264063096,-2.7911092547656153,16.932668570587115,0.1516983201369572
51155.971011305104,51143.246091679895,12.724919625212172,-3.302854777291941,17.00644150338905,0.15313018414400395
50532.38731817422,50515.83751512811,16.54980304611106,-3.831699893264158,17.080374724981212,0.15457754443089056
49914.03480420621,49893.179380516114,20.85542369009468,-4.36599412959913,17.154463912059285,0.15604102565488645
49300.88920187423,49275.254858380555,25.634343493678244,-4.8966918667647406,17.228705878540158,0.15752072212594723
48693.033807409454,48662.154850920844,30.878956488608903,-5.43143337105721,17.303096365406386,0.15901616953600953
48090.443644699684,48053.861927312755,36.58171738693223,-5.9617845736866,17.377632656724554,0.16052804031760112
47493.250248913624,47450.515583699016,42.73466521460648,-6.488750506134238,17.452312142153016,0.16205661303539806
46901.429900946285,46852.10048283128,49.329418115002255,-7.015253966506862,17.527135131119756,0.163602481303505
46315.04931710768,46258.69057592855,56.35874117912976,-7.546246709905972,17.602096891746978,0.16516570470803288
45734.11107321894,45670.29806569697,63.81300752197565,-8.076749888241466,17.677195573117807,0.16674588866389495
45158.59216612847,45086.90741357456,71.68475255390702,-8.599145290936576,17.75242889394955,0.16834369670368196
44588.431186648006,44508.46453968701,79.9666469609943,-9.12062744355353,17.827791341951908,0.1699595578228377
44023.69235495089,43935.0413007083,88.6510542425863,-9.640268255752744,17.903278265321223,0.17159358131325742
43464.39442288761,43366.66577276258,97.72865012503436,-10.155744904652238,17.978889208069006,0.17324603546288522
42910.57554677259,42803.384975208515,107.19057156407713,-10.67444052920473,18.054620770629363,0.17491680690203204
42362.213662473,42245.18580847295,117.02785400005274,-11.192934437509393,18.130473474488994,0.17660581608980264
41819.323369574355,41692.08966237287,127.23370720148358,-11.70522723027534,18.206441262354968,0.17831363397108782
41281.99330544765,41144.19636081981,137.79694462783883,-12.213205391657539,18.282521576165834,0.18004050674890104
40750.19557242344,40601.4869713285,148.70860109493998,-12.733135957947525,18.358706505863747,0.18178636212120416
40223.96705610707,40064.006800643954,159.96025546311182,-13.252894801495131,18.434994752031095,0.18355177521240273
39703.24417861432,39531.70151375581,171.54266485850184,-13.781085692833585,18.511383162598275,0.1853376934902996
39187.95153954119,39004.5014500115,183.45008952968726,-14.30711838559364,18.587870103078885,0.18714457832513212
38678.12959285729,38482.456197899985,195.67339495730437,-14.84395938472153,18.664451490982703,0.188972823522266
38173.73191161578,37965.52825898586,208.20365262991763,-15.386201784014702,18.7411245413978,0.19082256312311716
37674.78000439969,37453.747509827976,221.03249457171424,-15.931396827174467,18.81788045470281,0.19269243125928628
37181.20676551066,36947.05556118302,234.15120432763547,-16.477997637695807,18.89471188225549,0.1945832233259127
36693.03298630485,36445.48124645966,247.55173984518413,-17.022304024176265,18.9716150579023,0.19649491784526338
36210.35435057939,35949.132011930546,261.22233864884595,-17.555871464079246,19.04858541749366,0.19842814374796147
35733.12774388631,35457.97268482741,275.155059058903,-18.087591609059018,19.12561971490216,0.2003837067659112
35261.34692296675,34972.00798532228,289.338937644477,-18.617604260114604,19.20270944128497,0.20236218237066975
34794.98211762486,34491.21597038837,303.7661472364861,-19.129087224173418,19.279846897718166,0.20436264383734679
34334.043538435006,34015.61625959624,318.4272788387654,-19.641930989499087,19.35703264296788,0.20638519995441654
33878.52923513187,33545.21230066416,333.3169344677106,-20.16800967205927,19.434264384470602,0.20843031335733087
33428.40688413793,33079.98500085861,348.4218832793192,-20.708184201408585,19.51153779581328,0.21049881899163492
32983.596749020544,32619.86067461059,363.736074409953,-21.257811659648723,19.58884731746931,0.21259010314776358
32544.028495408256,32164.77758563571,379.2509097725448,-21.816823351124185,19.66618839541948,0.21470515581625718
32109.715413489386,31714.756405549466,394.95900793992126,-22.370439612474,19.743559671676692,0.21684526454756012
31680.657399390184,31269.80847598695,410.8489234032339,-22.90643257280317,19.820961275496124,0.2190101673080549
31256.75466250923,30829.8389051174,426.9157573918256,-23.429721218948544,19.89838200411876,0.22120141105791005
30837.937829059934,30394.78385302024,443.1539760396968,-23.950511937691772,19.975817321423083,0.22341835012485076
30424.280410754123,29964.723295199467,459.55711555465746,-24.435156944171467,20.053262278496877,0.2256604966475135
30015.681352557003,29539.568947728334,476.1124048286696,-24.921790904933005,20.130718249850172,0.22792923385899097
29612.123614871707,29119.309878479835,492.81373639187206,-25.392096461473557,20.208175494537745,0.2302239424331072
29213.59679739147,28703.945467749112,509.6513296423575,-25.8526525696725,20.2856229886285,0.2325436572136096
28820.05042535997,28293.42725220973,526.6231731502393,-26.29990563615138,20.36305848866981,0.23488871567642303
28431.43309195184,27887.721205300168,543.7118866516736,-26.74614750010369,20.440481226115708,0.2372609017116106
28047.702557521305,27486.781794509407,560.9207630118975,-27.19503534638352,20.517881380560482,0.23965941559231915
27668.82383470359,27090.589805444157,578.234029259436,-27.66245961475215,20.595254525315646,0.24208563584240492
27294.73603083764,26699.081859690777,595.654171146864,-28.123203844450472,20.67259060481966,0.24454021617957564
26925.45645786622,26312.291510683935,613.1649471822872,-28.56106836823892,20.74988495442262,0.24702272818114693
26560.982133121575,25930.216682195605,630.7654509259711,-28.988419694054755,20.82713339704444,0.24953318874837818
26201.233109060413,25552.790966369008,648.4421426914034,-29.43522525955632,20.904331558980132,0.25207229515299695
25846.18215875474,25179.98569801616,666.1964607385793,-29.898463375247957,20.981466393993795,0.25464030389062603
25495.77709632072,24811.76515769545,684.0119386252691,-30.366866686665162,21.05853400543426,0.25723729981588805
25149.996773493756,24448.10431676048,701.8924567332757,-30.840951142927224,21.135528248075808,0.25986429356761137
24808.825317122843,24089.00496635494,719.8203507679012,-31.34068508323253,21.212439441766232,0.262520778693129
24472.1735245175,23734.373965772204,737.7995587452956,-31.869395694695413,21.289261661195056,0.26520695144895073
24140.054474287233,23384.23756217123,755.8169121160014,-32.41694289861334,21.3659816589579,0.26792222642479824
23812.46738533883,23038.597555321787,773.8698300170422,-32.96250247924763,21.44259561926619,0.2706668980364868
23489.318001255233,22697.371777703953,791.9462235512812,-33.53135689026385,21.519098785103058,0.2734415019251964
23170.56688406455,22360.510149758964,810.0567343055852,-34.10586186376895,21.59547593006829,0.27624708361243383
22856.182934367407,22028.0070161646,828.1759182028065,-34.699744153389474,21.67172622225528,0.2790827118406727
22546.102882354375,21699.78881908135,846.3140632730247,-35.2911183568649,21.747835631772155,0.2819496798889472
22240.32366046927,21375.873298701863,864.450361767407,-35.887365847534966,21.823807577761542,0.28484786285807423
21938.82282647988,21056.229184544478,882.5936419354044,-36.496502909678384,21.899632836031206,0.2877785647221362
21641.51944477509,20740.794036369523,900.7254084055666,-37.15876407161704,21.975310601338318,0.29074100050725105
21348.425868700542,20429.57664208932,918.8492266112241,-37.860962478756846,22.05082111303237,0.293735192946385
21059.450794836466,20122.495817771163,936.9549770653033,-38.6166691751132,22.12616969258873,0.29676235635104686
20774.54935436555,19819.50310116329,955.04625320226,-39.410159263607056,22.201324195512484,0.29982115248659924
20493.646241962404,19520.538555548956,973.1076864134484,-40.23672385686223,22.276293260664243,0.3029117952770562
20216.732887069484,19225.588816152707,991.1440709167758,-41.05944130101852,22.351042863630013,0.30603366307711954
19943.761132331176,18934.620776242846,1009.1403560883296,-41.889078111162235,22.425598709174494,0.30918856659009464
19674.746122358403,18647.6395848206,1027.1065375378034,-42.69281789208617,22.499932215028345,0.3123751994488266
19409.5510855593,18364.53046179851,1045.0206237607886,-43.49454570648231,22.57406261782938,0.31559451014978035
19148.219759978238,18085.316929230205,1062.9028307480344,-44.25493403845758,22.647942633285215,0.3188433180494353
18890.62295863642,17809.90396292986,1080.7189957065584,-45.00263150941464,22.721583730296423,0.32212457405209455
18636.80260987905,17538.309971617644,1098.4926382614053,-45.71247761732229,22.794951879178527,0.3254353258923014
18386.642507802077,17270.454117196205,1116.1883906058736,-46.44562698320078,22.868066144079535,0.32877889462144594
18140.20907390709,17006.37834577421,1133.8307281328823,-47.16245688577328,22.940890855646607,0.3321527822333326
17897.47385383754,16746.08477813444,1151.389075703099,-47.91308640357602,23.01345243654009,0.33556071376483404
17658.35805766203,16489.476109466083,1168.8819481959467,-48.66150257215486,23.085723111668802,0.3390012666260402
17422.783140741187,16236.493247920018,1186.2898928211694,-49.4575436465384,23.15771211771888,0.34247520139322435
17190.699972832714,15987.070468732585,1203.6295041001285,-50.26026264236134,23.229388203873626,0.34598005263345283
16962.019026002265,15741.14458555873,1220.8744404435358,-51.05301981869707,23.300757873847147,0.3495167600894454
16736.72081478359,15498.680179875226,1238.0406349083657,-51.837915812699066,23.371785731445076,0.35308345994203716
16514.821513191935,15259.712817634681,1255.1086955572518,-52.63750075492135,23.442486927312743,0.35667874883695355
16296.32514496585,15024.225559550847,1272.0995854150028,-53.45017836298939,23.512823833314584,0.3603032689389101
16081.16488011478,14792.184124519974,1288.9807555948066,-54.28949276982166,23.582808467728352,0.3639567205198893
15869.33834191225,14563.56506305991,1305.7732788523383,-55.1224607468539,23.65240369545601,0.3676403126265451
15660.670449862662,14338.213497048657,1322.4569528140053,-55.93711504457315,23.72163700330014,0.37135453470229307
15455.312031053647,14116.266829351769,1339.0452017018788,-56.72185964948585,23.79045761764965,0.37509664133321
15253.090197484778,13897.577404577307,1355.5127929074717,-57.499879157549,23.85889215322039,0.37886723600830385
15054.041010559613,13682.164060324196,1371.8769502354178,-58.25512427795911,23.926879072024846,0.38266376953018755
14857.964153087076,13469.835359111117,1388.1287939759595,-59.0184011773963,23.994455445417742,0.3864897269283943
14665.05459488507,13260.783201177794,1404.2713937072758,-59.74748306474066,24.061567791006752,0.39034039934833364
14475.069801816151,13054.764428113132,1420.305373703019,-60.46491466942098,24.128251697859547,0.39421753524041286
14288.091091785269,12851.87686649823,1436.214225287038,-61.11598962210701,24.19445731058923,0.39811965794618737
14103.963643481718,12651.94575874951,1452.0178847322081,-61.76502272598009,24.26020638451653,0.4020458198023711
13922.812979954919,12455.11237217494,1467.7006077799776,-62.39530862708489,24.32546127772243,0.4059994295436204
13744.466813205872,12261.207974168796,1483.2588390370775,-63.049355740469764,24.390231878321003,0.40997829925284773
13569.004362300473,12070.297826829716,1498.7065354707581,-63.70077687319281,24.45447990408612,0.41398184539895216
13396.260351772215,11882.23854343344,1514.0218083387747,-64.3725338423319,24.51822087911692,0.418008568262463
13226.394397487664,11697.175112016603,1529.2192854710602,-65.04256793421519,24.581435316235464,0.4220592517666186
13059.217926874513,11514.93866338685,1544.2792634876619,-65.72192862558586,24.644134486765733,0.4261332572983008
12894.900049096057,11335.696811251306,1559.2032378447502,-66.4005023361824,24.706275501233257,0.43022728208568434
12733.196332683086,11159.203710788457,1573.9926218946287,-67.09502962712577,24.767882549360934,0.4343434157336891
12574.240414958742,10985.594328110727,1588.6460868480149,-67.76881072124525,24.828920581899695,0.4384796267463389
12417.73566925425,10814.561964450866,1603.173704803385,-68.4678778257803,24.88937826826724,0.44263479868450784
12263.924670026961,10646.3634117992,1617.5612582277608,-69.18315193517628,24.949224489261365,0.4468048131093749
12112.527036293639,10480.707639703387,1631.8193965902517,-69.89728205960273,25.008459917054733,0.4509897881243179
11963.871709258516,10317.944127912637,1645.9275813458792,-70.65460187673307,25.067062127278405,0.4551893579451054
11817.55874559708,10157.650559380123,1659.9081862169567,-71.4425037404435,25.12502624232315,0.45940142900527653
11673.85746273171,10000.127354495942,1673.7301082357671,-72.28763549723953,25.182334795315672,0.4636306165859487
11532.350762538312,9844.912230972204,1687.438531566107,-73.1669720961072,25.238988371516797,0.46787440385287327
11393.43302990111,9692.455159404433,1700.9778704966768,-74.07102174276224,25.29496022704564,0.47213547947923845
11256.733212672083,9542.33225339023,1714.4009592818527,-75.00719697205932,25.350274267089745,0.4764091245618472
11122.524177196236,9394.877110688605,1727.6470665076304,-75.9648161530713,25.404891145755233,0.4806985255457943
10990.540191659196,9249.761710925179,1740.7784807340172,-76.95010066581744,25.45882493051547,0.48499785664239575
10860.99332356537,9107.258387742897,1753.7349358224722,-77.98030436577392,25.51202126353868,0.48930736829007754
10733.655402128521,8967.08092604407,1766.574476084452,-79.0349975822246,25.564499932759105,0.4936234285713626
10608.65476518625,8829.422843756136,1779.231921430114,-80.10748556698672,25.61622182873867,0.49795277235995306
10485.725536180451,8693.958350750516,1791.767185429935,-81.16621709982428,25.6671953516546,0.502286226823848
10365.057225082497,8560.926741228928,1804.1304838535686,-82.22137265796482,25.71737487439336,0.506629880772235
10246.420491571485,8430.042354249576,1816.3781373219103,-83.27035572710156,25.766814508519936,0.5109788065417774
10130.026946428154,8301.586326972118,1828.440619456036,-84.28849758072465,25.815442974427455,0.5153366456552724
10015.474946499218,8175.066803890045,1840.4081426091734,-85.29511116041249,25.863329638335387,0.5197026077936369
9903.172743926507,8050.996747192393,1852.175996734114,-86.28807558216795,25.910359331775513,0.5240756590611239
9792.705092754888,7928.849936336666,1863.8551564182217,-87.28561186880688,25.956605725460058,0.5284492032795226
9684.222291445365,7808.885403439489,1875.336888005876,-88.28036894316756,26.001994488465524,0.532825542650672
9577.489764704229,7690.768500778497,1886.721263925733,-89.29269148702588,26.046544774617267,0.5372019932114791
9472.672387808336,7574.731739884528,1897.9406479238078,-90.33465497683937,26.090225879314506,0.5415744235706992
9369.66980578222,7460.631727045809,1909.0380787364104,-91.3937531059637,26.133063318319294,0.54594230398077
9268.663780317827,7348.6748064822505,1919.9889738355766,-92.4654723192507,26.17501313036628,0.5503053502736667
9169.2754467455,7238.478263448601,1930.797183296898,-93.56190697337297,26.216110776798462,0.5546634765367277
9071.711619331552,7130.224828377536,1941.4867909540164,-94.6674496926862,26.25627994825757,0.559012020732095
8975.781694448053,7023.75950064842,1952.0221937996337,-95.82669968561095,26.29558476950524,0.5633571844171414
8881.664388845886,6919.240762311612,1962.4236265342731,-97.0062034424991,26.333916958461316,0.5676877770433206
8789.03978361749,6816.353589401446,1972.6861942160451,-98.23864341371518,26.37139197262723,0.5720098676851816
8698.215864664566,6715.3970526620815,1982.8188120024847,-99.53146902481967,26.407877453119486,0.5763144803938397
8608.926871766811,6616.106431346942,1992.8204404198684,-100.88908515257936,26.44348617912787,0.5806093749730169
8521.603039391137,6518.923432910859,2002.6796064802782,-102.33032219894085,26.478057864868436,0.5848777293943336
8435.718751983612,6423.31586362667,2012.4028883569408,-103.86797415594629,26.51174388881632,0.5891314678883366
8351.66507119465,6329.670463236959,2021.9946079576907,-105.46858117892407,26.54438410886079,0.5933547789863113
8268.977394371155,6237.5310849506905,2031.4463094204648,-107.11585650545021,26.576139475272523,0.5975627122128674
8188.087149060028,6147.309036353918,2040.778112706111,-108.76650081420667,26.606854617101312,0.601736396750824
8108.508914247386,6058.5412794422,2049.9676348051858,-110.43960748400423,26.636683378689256,0.6058962729027145
8030.714408037669,5971.672139196254,2059.042268841416,-112.11984006264538,26.665406901624316,0.610016062711943
7954.275230932049,5886.292169098024,2067.983061834025,-113.83060350522283,26.693224089754153,0.6141168734747683
7879.6255024692655,5802.839468314593,2076.7860341546716,-115.53527380780724,26.719926564213715,0.6181747116860952
7806.180979394994,5720.721175777146,2085.459803617848,-117.24221527979535,26.74574518344655,0.6222153865910481
7734.201874684527,5640.19030163747,2094.011573047057,-118.93059310250828,26.770437266033326,0.6262110236044064
7663.732849225842,5561.295870552285,2102.4369786735565,-120.61778282013256,26.794236477493488,0.6301760523229007
7594.62195885409,5483.876922722722,2110.745036131368,-122.28128625737736,26.8168964471593,0.6340944325409735
7526.922084689319,5408.003368126744,2118.918716562574,-123.9427683683898,26.838665942810795,0.6379854571753235
7460.5148119713285,5333.517069989293,2126.9977419820348,-125.676336510689,26.859331713595655,0.6418282232010091
7395.392155773647,5260.4610892674655,2134.9310665061817,-127.43321073171683,26.879097081244222,0.6456385732841311
7331.627544830416,5188.839464115515,2142.7880807149013,-129.28988047957682,26.89775416510319,0.6494018080128847
7269.088729319952,5118.6126757811135,2150.476053538839,-131.15357718552696,26.91551955203002,0.6531323867330863
7207.751580060847,5049.650013044774,2158.101567016073,-133.08910322848533,26.93219769078821,0.6568120243252707
7147.568845665603,4981.981243043883,2165.587602621719,-134.97856639599922,26.94795883501029,0.6604575317697504
7088.683386922081,4915.691356377276,2172.9920305448054,-136.92860941839172,26.962611984976,0.6640584436519323
7030.812665320333,4850.538879661698,2180.273785658635,-138.86864585321746,26.9763070607168,0.6676148297545775
6974.160538912117,4786.684657349743,2187.4758815623736,-140.83694477086829,26.988897270210085,0.6711187924388256
6918.662596393434,4724.1165340188545,2194.5460623745794,-142.78842173351586,27.000525218371752,0.6745754827455818
6864.267527512549,4662.7431520533,2201.5243754592493,-144.77685199487314,27.01113556827847,0.677981900713352
6810.955695536351,4602.54275403903,2208.4129414973213,-146.73458739840862,27.02077213750656,0.6813360880928617
6758.843279699606,4543.680683070823,2215.162596628783,-148.77613336310606,27.02942508407393,0.6846411167674827
6707.824287356304,4485.970683358062,2221.853603998242,-150.79993473101786,27.037036311927686,0.6878913192035482
6657.894701316436,4429.501573662003,2228.393127654433,-152.87823110845784,27.043701353223387,0.6910995819645981
6608.732150297752,4373.844631600751,2234.887518697001,-154.97965585010388,27.049356855859337,0.6942534717059599
