energy,prior,fidelity,mass,psnr,ssim_indices
11985.780937662874,11985.780937662874,0.0,0.0,19.99877394335783,0.22265959093290444
10714.00393527759,10708.763948440606,5.239986836982857,-1.9501525839368696,20.521071812689232,0.23670009142120577
9590.2630297816,9570.549902732571,19.71312704902807,-3.920088179882441,21.034899633396982,0.25135096496507187
8600.12117884804,8558.428797888246,41.69238095979444,-5.913793385101599,21.538654460360654,0.2665842291898306
7729.952736557243,7660.316766416622,69.63597014062121,-7.938099802486249,22.030749734509385,0.2823564562710565
6966.9831169759545,6864.803941799496,102.17917517645891,-10.008598790271208,22.50966405629275,0.29861065160350736
6299.346088579569,6161.219797812717,138.12629076685272,-12.142914012809342,22.973960919536726,0.31528261698283
5716.108487395395,5539.668461458561,176.44002593683408,-14.33472702083236,23.4223182022296,0.332299226008842
5207.256553817251,4991.022641120445,216.2339126968063,-16.594827103530406,23.85355019590331,0.34957928019994683
4763.713990520257,4506.956007661548,256.757982858709,-18.91880362144002,24.266644026911223,0.36704139200786573
4377.267352426914,4079.8760352845043,297.39131714241,-21.295364837402303,24.660756141630262,0.38459434004087506
4040.57375998181,3702.9414835144166,337.63227646739324,-23.7097109046299,25.035214212437772,0.40215758326395973
3747.1375844340873,3370.0570325595418,377.08055187454534,-26.145265043094696,25.389532399733685,0.4196456901098414
3491.2168266163035,3075.7891327335446,415.42769388275894,-28.598491381460917,25.723402629543067,0.4369916913363567
3267.7754281608836,2815.327257039006,452.4481711218776,-31.065050188975874,26.0366888694439,0.45414805241693285
3072.4326907354903,2584.4482349054283,487.98445583006196,-33.54241785629711,26.32941801630318,0.4710314483815629
2901.393058673124,2379.46072617407,521.9323324990544,-36.02626119044726,26.601784041527026,0.4875773650253206
2751.366706293219,2197.130359680592,554.236346612627,-38.537727297218225,26.854118614920893,0.5037265437305163
2619.522479810339,2034.6429730747773,584.8795067355618,-41.07757339132513,27.086868678257687,0.5194431851092423
2503.422961380089,1889.5497276426443,613.8732337374447,-43.64022423604183,27.300616008172142,0.5346912298811128
2400.9720353333873,1759.7208278966002,641.2512074367871,-46.218807179728174,27.496027925764125,0.549454016490559
2310.3695487441078,1643.3057425546506,667.0638061894572,-48.813142111408524,27.673847734356066,0.5637111320454807
2230.0668929991257,1538.6921322336711,691.3747607654544,-51.42909655668336,27.83486893753131,0.5774453232830791
2158.7328147358257,1444.4794131043038,714.2534016315217,-54.05243632241036,27.979944151850194,0.5906558872095143
2095.2204734816232,1359.4460638570613,735.774409624562,-56.67941134926514,28.109946369237765,0.6033269442184677
2038.5443952717371,1282.5283611527602,756.0160341189769,-59.307634269003756,28.22576506371047,0.6154669352898562
1987.8581611104055,1212.8032877439882,775.0548733664173,-61.937579693352745,28.32828521803996,0.6270795831261973
1942.4291881756685,1149.4627795335764,792.9664086420921,-64.56737473991961,28.418374870031737,0.63817779814471
1901.6270394703197,1091.803372913945,809.8236665563747,-67.19470949127572,28.49688846072614,0.6487659129134223
1864.907772003875,1039.212405207529,825.6953667963459,-69.82353571145359,28.56465996642814,0.6588591803973586
1831.7985621557182,991.15219975627,840.6463623994481,-72.45660646496981,28.622497069775406,0.6684716244872865
1801.886862604557,947.1492960879924,854.7375665165647,-75.09925876688794,28.671175776779943,0.6776256366760816
1774.8133160413613,906.7869421518532,868.026373889508,-77.75753602245095,28.711438837283296,0.6863383028355244
1750.2646682144477,869.6983108982531,880.5663573161945,-80.43565571648651,28.743988526286227,0.694623441904068
1727.9669730006838,835.5595100175366,892.4074629831472,-83.13361062578042,28.769480161114217,0.7024942184249062
1707.6792431438903,804.0829938294389,903.5962493144514,-85.84963319003873,28.788521840805267,0.7099683972780131
1689.1898416185036,775.0134043258942,914.1764372926094,-88.58354368212167,28.801686110401498,0.7170606535082836
1672.3124674197375,748.1238200118701,924.1886474078673,-91.33683161452791,28.809503859248693,0.723790103033683
1656.8831505454655,723.2127750060673,933.6703755393982,-94.11023346447473,28.812472496317287,0.730171037853007
1642.7571430716894,700.1007503687422,942.6563927029473,-96.90329387498059,28.81105102283393,0.7362199612052988
1629.806151129294,678.626713605063,951.1794375242312,-99.71786429319764,28.80565940267371,0.7419520419042235
1617.9162747940343,658.6462730800677,959.2700017139666,-102.55615852182382,28.796685434079347,0.7473829949817552
1606.9867471139678,640.0304159445532,966.9563311694145,-105.41829484823393,28.784482600942884,0.7525252405539326
1596.928162182124,622.6634622602874,974.2646999218366,-108.3026052733112,28.769374198671986,0.7573931552819313
1587.6609967153936,606.4413901708048,981.2196065445887,-111.20699438499287,28.75165652819514,0.7619999931039527
1579.1143616043905,591.2705621590312,987.8437994453593,-114.12813708026079,28.73160240282437,0.7663610068309524
1571.224776673966,577.0664218320389,994.158354841927,-117.06041472899233,28.709460356263218,0.770485948315744
1563.9352802153142,563.7523501480425,1000.1829300672716,-119.99811659818079,28.68545781166113,0.7743855157386745
1557.1947908560728,551.2589027959725,1005.9358880601002,-122.93758285763033,28.65980298998261,0.7780714432150302
1550.9571508233512,539.5229001734374,1011.4342506499138,-125.87511547382019,28.63268637312455,0.7815534676387276
1545.1807357273833,528.486851657623,1016.6938840697603,-128.80757922304474,28.60428196304854,0.7848438578766129
1539.8278801607185,518.0982632980132,1021.7296168627054,-131.732481678584,28.574749447398112,0.7879502655049483
1534.8645494133734,508.3093043509889,1026.5552450623845,-134.64816403062287,28.544234426045783,0.7908788879025758
1530.2600979109702,499.0764317843564,1031.1836661266138,-137.55320327817753,28.512869499192846,0.7936422976541716
1525.9867842188264,490.35990807901146,1035.6268761398148,-140.44584958383348,28.480774938639595,0.7962481003454144
1522.0194671558263,482.1234647411295,1039.8960024146968,-143.3243761782287,28.448059406757977,0.7987039104002193
1518.3352313210696,474.3338222542232,1044.0014090668465,-146.1874077259854,28.41482116821964,0.8010175411553785
