energy,prior,fidelity,mass,psnr,ssim_indices
60407.31309344151,60407.31309344151,0.0,0.0,16.48011916785731,0.18241344633272813
54991.14442046632,54968.98206990493,22.16235056138817,0.1444645076408051,16.90925879085469,0.19354857304277098
50111.26531162182,50027.109913322594,84.15539829922275,0.26111506720189936,17.332984280675696,0.20501087410648822
45723.02171471256,45543.335693818255,179.6860208943021,0.35027491362416185,17.75054977667452,0.21676550939041392
41783.98707346337,41480.947080526166,303.0399929372085,0.393187781854067,18.161230940331794,0.22877577632144233
38254.07999453734,37805.02387239148,449.05612214585847,0.39157259472995065,18.56433645057368,0.2409977025096165
35095.54828820247,34482.4447235662,613.1035646362732,0.34684753566398285,18.959219435352736,0.25339937575163185
32273.075993597482,31482.0229027564,791.0530908410832,0.24322612350806594,19.345284363960374,0.2659390973245844
29753.701118308058,28774.446918334088,979.2541999739711,0.06037044370896183,19.72198797422383,0.27857102453646965
27506.86058378168,26332.349112964836,1174.5114708168448,-0.18319018254987895,20.08884465831369,0.29125413360330604
25504.402978258648,24130.352273079225,1374.0507051794245,-0.49875470899860375,20.44543496821937,0.3039476376790089
23720.511328808905,22145.014510126308,1575.4968186825968,-0.9124035921122413,20.79139985930184,0.31661631473716745
22131.69381414662,20354.857144847163,1776.8366692994557,-1.4198555785987992,21.12644294464544,0.329225113291627
20716.664327717048,18740.281872751664,1976.3824549653853,-2.0201958011311945,21.45033027153323,0.3417391091396404
19456.22516117897,17283.483993362202,2172.7411678167664,-2.726029658020707,21.762884014298404,0.354131662078034
18333.103951702185,15968.31995880578,2364.7839928964063,-3.521894836478168,22.063988186649865,0.36637287945990077
17331.78030871223,14780.155824347188,2551.624484365041,-4.388904101157095,22.353580456409606,0.37843347251360243
16438.39097431799,13705.801753645406,2732.5892206725853,-5.334321268193889,22.631647826145496,0.39029117306649375
15640.600799044112,12733.419026092164,2907.181772951948,-6.360027755232295,22.898217203211644,0.40192547386836847
14927.437248432947,11852.368407781887,3075.0688406510603,-7.45161879088846,23.153361660969644,0.413324455162183
14289.172211701662,11053.115313699895,3236.0568980017665,-8.594629105937202,23.397189989444655,0.42447337507900634
13717.21600431292,10327.144358462947,3390.071645849974,-9.7513816296414,23.62983992807734,0.43535858865105775
13204.001261209498,9666.877540296568,3537.12372091293,-10.917899472056888,23.851471708101236,0.4459691697219119
12742.845467443027,9065.548667694766,3677.2967997482615,-12.099076647369657,24.062273517274125,0.4562974710816024
12327.86545673737,8517.133101890178,3810.732354847192,-13.295553038013168,24.262450485417048,0.4663374917314121
11953.890063222269,8016.2736235940765,3937.6164396281915,-14.505253863957478,24.452228630734503,0.4760829581953074
11616.363487991368,7558.191697363603,4058.171790627764,-15.733531438629143,24.63184857397012,0.48553231374174244
11311.284140051226,7138.643746958155,4172.640393093071,-16.979295884491876,24.801567268266172,0.4946832481739117
11035.120969554693,6753.840780160332,4281.280189394362,-18.24640625793836,24.9616520681937,0.5035367424064798
10784.75879403848,6400.399383711564,4384.359410326915,-19.54071126479539,25.112378731614662,0.5120925357067744
10557.454521645963,6075.30674795111,4482.147773694853,-20.860208348429296,25.254030246442678,0.5203522400016778
10350.78881952516,5775.875515259346,4574.913304265814,-22.20692415215308,25.386899590500406,0.5283206168957053
10162.622880612515,5499.704091329453,4662.918789283061,-23.58606109023094,25.511286578748845,0.5360008110881735
9991.064426682351,5244.642807729502,4746.421618952849,-24.999486830056412,25.62749334558992,0.5433970042320849
9834.435585827407,5008.767602450269,4825.667983377138,-26.443482307629893,25.735825142937237,0.5505141829257211
9691.24560263241,4790.350350397892,4900.89525223452,-27.919896569714183,25.836585384064136,0.5573569211834885
9560.170217718784,4587.838446246549,4972.331771472234,-29.430679618788417,25.930075407387278,0.5639316151287548
9440.033778500729,4399.840291086175,5040.193487414553,-30.973107900528703,26.01659217486479,0.5702422681615064
9329.787436459446,4225.102152311159,5104.685284148288,-32.54641830630135,26.096429746292884,0.5762952671143208
9228.496743363601,4062.4960588990953,5166.000684464507,-34.146009925112594,26.16987698189783,0.5820971841569377
9135.326409221254,3911.0048724897392,5224.321536731514,-35.76975912353373,26.23722080085438,0.5876562645294164
9049.52869883048,3769.7100796474247,5279.8186191830555,-37.41850245959358,26.298741760008618,0.5929776965872183
8970.43472793041,3637.7812444704764,5332.653483459932,-39.092198238446144,26.35471418535454,0.5980678688369969
8897.444718181767,3514.466579016719,5382.978139165048,-40.788097518117866,26.40540738794593,0.602933042504599
8830.01907152931,3399.083823314125,5430.935248215186,-42.503083535062615,26.45108425155557,0.6075801805810049
8767.671756755528,3291.012267016364,5476.659489739164,-44.23374776219134,26.492000871554403,0.6120163165824769
8709.966072230012,3189.6887794484855,5520.277292781527,-45.97473916976014,26.52840370407086,0.6162486857217843
8656.50858173651,3094.6010217840817,5561.907559952429,-47.7235911306052,26.560532173143688,0.6202826474775364
8606.943446543843,3005.2822790492905,5601.6611674945525,-49.478069014439825,26.58861862153283,0.6241252452113312
8560.948278892049,2921.3055379216603,5639.642740970388,-51.23529428744223,26.612887875426146,0.6277822647052268
8518.231601007163,2842.2805964656536,5675.951004541508,-52.99045116544585,26.633556173448873,0.6312595646592799
8478.529254659168,2767.8507480109,5710.678506648268,-54.73815450730035,26.650831225760705,0.6345635865746244
8441.601328116225,2697.689287928797,5743.912040187428,-56.475853699521394,26.664912892201382,0.6377002378490988
8407.23028619492,2631.497152188015,5775.733134006904,-58.20014541147975,26.675993594164833,0.6406751476061211
8375.218374817334,2569.0001731913817,5806.218201625953,-59.904492340399884,26.684258181421384,0.6434947415043846
8345.385290507838,2509.94614034408,5835.439150163759,-61.58217075152788,26.689883732000478,0.6461643666176992
8317.56649100137,2454.102947684762,5863.463543316608,-63.226308307406725,26.693039078234506,0.6486891693236349
8291.612334640056,2401.25743987134,5890.354894768716,-64.83067897436558,26.693884720722192,0.651074722993607
8267.385972731092,2351.2130291580133,5916.1729435730795,-66.39060504469671,26.69257397913973,0.6533260294322788
8244.761912111979,2303.787969351802,5940.973942760177,-67.90243795199785,26.689252945686583,0.6554483080749807
8223.625190576291,2258.8141970452784,5964.810993531013,-69.36255943728611,26.684060568397044,0.6574466338901367
8203.870606267184,2216.136616875021,5987.7339893921635,-70.76737539964961,26.677128825482022,0.6593259703163271
8185.401503690426,2175.6115428406156,6009.78996084981,-72.11378335414338,26.66858309582925,0.661091306603992
8168.128976884537,2137.105647523401,6031.023329361136,-73.39901820744853,26.658542569716907,0.6627474302092332
8151.971541084021,2100.4955891294458,6051.475951954575,-74.62168777207262,26.64712018721374,0.6642990362302196
8136.854153459959,2065.666928223584,6071.1872252363755,-75.78119622031227,26.634422908154896,0.6657504357485817
8122.707569827153,2032.5132761068085,6090.194293720344,-76.87711609245162,26.620551729918066,0.6671055583285348
8109.467836937005,2000.9356903419678,6108.532146595037,-77.90957302728202,26.605602057860512,0.6683686423596967
8097.075844536577,1970.8420369713608,6126.233807565216,-78.87920745581505,26.5896639652643,0.6695437453758029
8085.476855220439,1942.146395351888,6143.330459868551,-79.78685631416738,26.57282256651814,0.6706345369683904
8074.619981621388,1914.7684439907064,6159.851537630682,-80.63317736360477,26.555158160112896,0.67164477365318
8064.458031490283,1888.6332072790938,6175.8248242111895,-81.41806503062253,26.536746363544527,0.6725781034054404
8054.947220197904,1863.670658070911,6191.276562126993,-82.14102820932749,26.51765836920425,0.6734383235520448
8046.046904745022,1839.8154029795614,6206.231501765461,-82.80182788608363,26.49796111383192,0.6742286218780759
8037.719316458956,1817.0063400721128,6220.712976386843,-83.40076163952472,26.477717298707777,0.6749523648959261
8029.929280794058,1795.186265783937,6234.743015010122,-83.93860889607458,26.45698575155727,0.6756126469006629
8022.644049477851,1774.3016111710654,6248.342438306785,-84.41635477251839,26.43582172734189,0.6762125807001808
8015.833078417184,1754.302155537149,6261.530922880035,-84.83513352196314,26.414277105503217,0.676755341554418
