energy,prior,fidelity,mass,psnr,ssim_indices
29505.91225753975,29505.91225753975,0.0,0.0,20.00791748155409,0.21756506858073968
26321.971625502592,26308.858143040685,13.113482461909083,-1.6697672786249314,20.5342386786902,0.23246734068778016
23511.410375043466,23462.099301337854,49.31107370561189,-3.403486239956692,21.052962296655565,0.2479791711656298
21037.682770991927,20933.442819506403,104.23995148552387,-5.169350534837577,21.562614768393146,0.26406185754259265
18866.20813449329,18692.191673929614,174.01646056367628,-6.989242033028859,22.061754387878914,0.28065728218806024
16964.58708919058,16709.37935117707,255.2077380135087,-8.843121006895672,22.548992200541413,0.2977090282776185
15302.751802560464,14957.942773843492,344.80902871697236,-10.703361078165472,23.023012191991615,0.31515415681728826
13852.998107189429,13412.781650912377,440.21645627705226,-12.588169531954918,23.482610967134995,0.3329100609247173
12589.968377550946,12050.759569499485,539.2088080514606,-14.51592180035368,23.926702383642763,0.35088134829998396
11490.705817246258,10850.792176020374,639.9136412258845,-16.51905252535653,24.354333657616294,0.36896987611867377
10534.528710106675,9793.749193397907,740.7795167087679,-18.6079110076098,24.76469093129371,0.38708053453399566
9702.962547185272,8862.410006032585,840.5525411526874,-20.75773872130958,25.15711394785738,0.40510036065962124
8979.643249934385,8041.408851929686,938.2343980046983,-22.9581704508455,25.531088380664755,0.4229277467904194
8350.15185726851,7317.092835570435,1033.0590216980747,-25.212600522005232,25.886253797782093,0.4404664465901645
7801.849600934386,6677.392823604042,1124.4567773303443,-27.508288061770145,26.22240131600668,0.45763326891931283
7323.695004307472,6111.665306133856,1212.0296981736165,-29.827724965463858,26.539461980313494,0.47434037530017753
6906.0914893158115,5610.55999423647,1295.5314950793422,-32.19324893447629,26.837489789902882,0.4905268770669142
6540.748206015813,5165.915265021779,1374.8329409940338,-34.60887757712044,27.116655565091648,0.5061414955003393
6220.516285130096,4770.611333563907,1449.9049515661889,-37.07265423913486,27.377227811617217,0.5211349562517801
5939.258202601655,4418.463612648822,1520.7945899528336,-39.565316673586494,27.619560317104877,0.5354804677669827
5691.714168086832,4104.113922587527,1587.600245499305,-42.06202882700018,27.84408827473471,0.5491639166660972
5473.372033366741,3822.9079545796158,1650.464078787125,-44.556450389296515,28.051314921241406,0.5621767431705337
5280.36415894986,3570.806952601367,1709.5572063484938,-47.031658263498684,28.241806484176454,0.5745172333600236
5109.375353666272,3344.3101384998195,1765.0652151664517,-49.47186940352549,28.41618031889656,0.58618838290792
4957.559971727557,3140.3776531474587,1817.1823185800986,-51.86445938087127,28.575099342410446,0.5972057968003522
4822.474655707783,2956.3653825468755,1866.1092731609074,-54.20377719278622,28.719253976376322,0.6075863786232464
4702.0167487489525,2789.973287220488,1912.0434615284646,-56.48631599980581,28.84935390546314,0.6173561511694035
4594.37603309344,2639.1976492326185,1955.1783838608217,-58.71565505878243,28.96612247741547,0.6265380554789429
4497.990708302559,2502.29104580317,1995.6996624993892,-60.89590059472539,29.07029472760733,0.6351587674010198
4411.513509505121,2377.730078558048,2033.7834309470732,-63.03435397776775,29.16259665493574,0.6432425338146702
4333.774316339101,2264.1789970251575,2069.5953193139426,-65.13307605803129,29.243740063016396,0.6508111820596408
4263.756383786867,2160.4642826656695,2103.2921011211974,-67.18239026253286,29.314426385305083,0.6578955442068354
4200.575842431541,2065.5551422623553,2135.020700169186,-69.17005773879646,29.375341016469328,0.6645241647451131
4143.463366276279,1978.5456043007046,2164.917761975574,-71.0846327579784,29.42714382805939,0.6707201609860075
4091.747381125054,1898.63682292637,2193.110558198684,-72.9164263116254,29.47047098147455,0.6765078619526923
4044.839349718498,1825.1217490349227,2219.7176006835753,-74.6604131849308,29.505936792506837,0.6819105985004575
4002.2226422547174,1757.3728110415818,2244.8498312131355,-76.3208330511261,29.534129502840386,0.6869521560818405
3963.4448947072415,1694.834406665866,2268.6104880413754,-77.8998660188663,29.555608168445502,0.6916531268694056
3928.109355541801,1637.0153439488986,2291.0940115929025,-79.39204835655983,29.570903332378396,0.6960327865710333
3895.865619878491,1583.477257803583,2312.388362074908,-80.79229249971104,29.580515271933994,0.7001127650723014
3866.404687077538,1533.8299815475307,2332.574705530007,-82.09945848362986,29.58491289001447,0.703915076013308
3839.452388712935,1487.7241125552837,2351.728276157651,-83.312614414157,29.58453620369216,0.707458388667952
3814.7652971936795,1444.8460625586918,2369.919234634988,-84.43019052222371,29.579797388648146,0.7107575291948723
3792.1277864469184,1404.915194412005,2387.2125920349135,-85.44922366811079,29.571081413434953,0.7138259675668294
3771.348746082496,1367.680521329812,2403.6682247526837,-86.36762085405644,29.55874758854832,0.7166772393136026
3752.2580623440767,1332.9166379557942,2419.3414243882826,-87.1850961567834,29.543129905756324,0.7193255139007236
3734.7040257610597,1300.4205857474492,2434.2834400136103,-87.90264423393819,29.524538489738656,0.7217833600143115
3718.5510106233132,1270.0091144267392,2448.541896196574,-88.52185219645617,29.50326041123506,0.7240622825581683
3703.6770230569086,1241.5161419119113,2462.1608811449973,-89.04546277497138,29.479561121726295,0.726171109987562
3689.9722797215118,1214.7906929793264,2475.1815867421856,-89.4768865993683,29.453686585060584,0.7281235487456073
3677.338303470591,1189.6958590968504,2487.642444373741,-89.81978053505009,29.425864595279528,0.7299301703901119
3665.686240408181,1166.1070588776304,2499.579181530551,-90.07782217548811,29.39630584232072,0.7315999151253526
3654.9356650222376,1143.9106220402941,2511.0250429819434,-90.2540342939028,29.365204975273596,0.7331422497641097
3645.0140000504025,1123.0030900374575,2522.0109100129453,-90.35045250430994,29.33274106328077,0.7345651077465911
3635.855684185127,1103.2901813851083,2532.5655028000187,-90.36901599644625,29.299078266679416,0.7358752325393304
3627.401346129974,1084.6858167205278,2542.7155294094464,-90.3119494888524,29.264367264112565,0.7370801549251471
3619.596837421411,1067.1110149499443,2552.4858224714667,-90.18183750902244,29.228746256612084,0.7381868046018022
