energy,prior,fidelity,mass,psnr,ssim_indices
48074.40973225957,48074.40973225957,0.0,0.0,16.496620575157255,0.17683273430192403
47519.11700727166,47518.89243678371,0.2245704879565721,-0.06164259387151105,16.568453424198676,0.1780723363140602
46967.84248804367,46966.9475399432,0.8949481004782662,-0.11758549796650186,16.64043849540726,0.1793244078863543
46420.65483924895,46418.64886696649,2.0059722824615243,-0.16299246459675487,16.712572099031018,0.18058887734924503
45877.63011018504,45874.07783022953,3.552279955509805,-0.19950292255816748,16.784853018755378,0.18186590712206682
45338.827968349164,45333.29969332544,5.5282750237245475,-0.2296404978915234,16.857277041156994,0.18315513066706676
44804.31514986157,44796.386957918694,7.928191942875701,-0.2493896046289592,16.92984048591549,0.18445700949756227
44274.13867406436,44263.392632262716,10.746041801640814,-0.2600656287249876,17.002540414704306,0.18577147139883213
43748.298929977165,43734.32306970422,13.975860272944542,-0.2579986226046458,17.07537369357159,0.18709878907458674
43226.79315950229,43209.18126089268,17.611898609609476,-0.25188382322812686,17.14833859161417,0.1884393797817303
42709.709674765414,42688.06188179015,21.647792975267937,-0.24335507942305412,17.221428737562913,0.18979323451095484
42197.03505855125,42170.95803227672,26.07702627452965,-0.23231164189928677,17.29463982654023,0.19116072219280297
41688.807214634995,41657.913789541264,30.8934250937344,-0.21711274750850862,17.367968795562145,0.1925421104020051
41185.03275665531,41148.94235133457,36.09040532074039,-0.1959538451701519,17.44141558371823,0.1939377710260456
40685.782700168405,40644.12121630486,41.66148386354631,-0.17596177694940707,17.51497362259481,0.1953474377507307
40191.032816444436,40143.43347315696,47.599343287476685,-0.1591197802554234,17.588639476563,0.19677199887011898
39700.80628397709,39646.90823240501,53.89805157207472,-0.13658879244758282,17.662409613686265,0.19821129920085845
39215.144165769656,39154.593912052,60.55025371766065,-0.12169147022359539,17.736284470997905,0.19966584811380061
38734.03211842463,38666.48288356,67.5492348646267,-0.11539478065969888,17.810257538080577,0.20113538219580354
38257.41086574767,38182.52311925785,74.88774648981986,-0.1113686231255997,17.884322619135457,0.20262020202819966
37785.36220722593,37702.80133218902,82.56087503691596,-0.11031403188826516,17.958473346251523,0.20412062833668868
37317.91521396106,37227.35605781823,90.55915614282713,-0.12097743211052148,18.032704098910468,0.2056372178783118
36855.084317641944,36756.20827454127,98.87604310067738,-0.13118288612167817,18.107013108298755,0.20716911117702227
36396.78647834589,36289.28143553153,107.50504281436795,-0.1489156685929629,18.181397870333548,0.20871712504755943
35943.152407030895,35826.71316522523,116.43924180566744,-0.16479696675378364,18.255852189720905,0.21028175187391063
35494.21922823691,35368.550831104374,125.66839713253235,-0.1861138347449014,18.330368725289656,0.211862553931619
35049.91563690868,34914.729994952,135.18564195667838,-0.22559559410001384,18.40494801114297,0.21345988387226578
34610.220971840135,34465.236737719766,144.98423412036817,-0.2668133139159181,18.479580851166276,0.21507317998773975
34175.16167630987,34020.10379051477,155.05788579510212,-0.3151250937517034,18.554269146083477,0.2167035289788899
33744.69860095998,33579.300545769125,165.39805519085266,-0.36801519880100386,18.62900819911077,0.21835154869579185
33318.84668322514,33142.84904915684,175.99763406830525,-0.423085813607031,18.70379092055333,0.22001756011244092
32897.581859776146,32710.731571399403,186.8502883767419,-0.4697239074957906,18.778612814452714,0.22170171566585273
32480.907172040676,32282.96008194987,197.94709009080526,-0.5235927791072754,18.853469959972596,0.2234042099663158
32068.789532283572,31859.50809809753,209.28143418604483,-0.5829716736916453,18.928354283184778,0.22512474002915664
31661.20713431126,31440.36176632631,220.8453679849479,-0.6439751819998492,19.0032652868243,0.2268637932734673
31258.167079809384,31025.53286495571,232.63421485367462,-0.7111241326565505,19.07820030848875,0.2286224350501919
30859.639150455463,30615.000624978842,244.6385254766192,-0.7774650684586959,19.153153321818394,0.23040004492517493
30465.588528270848,30208.736862695634,256.85166557521217,-0.8498219643515768,19.228111628308696,0.23219686494025435
30076.03534591575,29806.769712729198,269.26563318654945,-0.9118430579837877,19.303070596922044,0.23401247883955087
29690.989969915376,29409.117659745814,281.87231016956173,-0.9662420433669467,19.378026204658127,0.23584771930211737
29310.381518109025,29015.715262876536,294.6662552324895,-1.0074278281026636,19.452973166418396,0.23770317858791457
28934.216029989853,28626.577714812374,307.6383151774798,-1.0524315023576492,19.527907380359494,0.2395792464594276
28562.439422159892,28241.65372429667,320.78569786322157,-1.0994981120456941,19.60282912820078,0.24147630538018697
28195.03481393668,27860.937063671645,334.097750265034,-1.1728602989969659,19.67772354164869,0.24339407175663694
27831.92676646158,27484.35585575252,347.570910709058,-1.2511656430724543,19.75258900985628,0.24533330932024602
27473.181050951043,27111.985098259778,361.1959526912644,-1.342104821385874,19.827413918228896,0.24729419923125817
27118.71662561502,26743.748747248916,374.96787836610497,-1.4194621386632207,19.902192617361266,0.24927778382208876
26768.56953068254,26379.68945800053,388.8800726820102,-1.5174490759745822,19.976913636582793,0.2512823015410002
26422.71186457672,26019.7878805679,402.9239840088195,-1.6068484921270283,20.051579391306127,0.25330874535827014
26081.09053458002,25663.999447842983,417.0910867370375,-1.6991173948626965,20.126181371810166,0.25535748242900375
25743.589996728824,25312.211467506382,431.3785292224424,-1.7865911549160955,20.200716041099398,0.2574290447811257
25410.2892088992,24964.509620447352,445.7795884518492,-1.8906846837271587,20.27516999975825,0.2595241829561888
25081.14862753199,24620.863023160666,460.285604371326,-1.972893996447965,20.349549658645078,0.26164347449839376
24756.171259991126,24281.279286978912,474.8919730122132,-2.031592037259543,20.42384038308223,0.2637871153885573
24435.2438718367,23945.650365836005,489.5935060006974,-2.0659672399851843,20.498037192523615,0.2659541339661253
24118.413071340354,23614.029516446113,504.38355489424,-2.101036462052434,20.572117025097384,0.26814426175449074
23805.584654529863,23286.328796196325,519.2558583335376,-2.1311603831127286,20.646083994062696,0.2703591109629884
23496.784768990397,22962.5804363595,534.2043326308948,-2.1635286670498317,20.719921218815458,0.2725979071142413
23191.976970197396,22642.751418627584,549.2255515698126,-2.1983051586285,20.79363182252505,0.27486170900875184
22891.13955769991,22326.830031549198,564.30952615071,-2.2619062161029433,20.867204805863473,0.27715052766197895
22594.13160133826,22014.67664197923,579.4549593590298,-2.3191640585209825,20.940649838481484,0.2794660140878668
22300.98090416453,21706.32675846227,594.6541457022599,-2.391230590932537,21.013943859754825,0.2818068581311682
22011.61674688447,21401.711652287988,609.9050945964816,-2.447225318690471,21.0870982488597,0.2841742554349555
21726.06104583444,21100.861312503035,625.1997333314057,-2.490590977293323,21.160078092689147,0.28656723067557155
21444.204407214955,20803.669909233937,640.5344979810195,-2.505964050986222,21.232895634857737,0.2889879527305474
21166.18630266766,20510.288657639547,655.8976450281108,-2.505751715696533,21.30551887114806,0.2914351455867943
20891.75092678416,20220.46096396305,671.2899628211084,-2.4805453284134273,21.37797169693664,0.29391130397450266
20620.974028900637,19934.269307093036,686.7047218076015,-2.4710381004115334,21.450216632085535,0.2964150735488387
20353.775090520772,19651.63309282461,702.1419976961629,-2.453215488771093,21.522269220520567,0.29894786666620715
20090.256993829786,19372.66806349604,717.5889303337465,-2.4374177726349444,21.594089392414038,0.3015077493567265
19830.260561757466,19097.218489388306,733.0420723691595,-2.40788470532425,21.665685668795305,0.3040957064736849
19573.75607094554,18825.25558439012,748.5004865554178,-2.4076196815949515,21.737034487989987,0.3067129586558839
19320.68516264204,18556.7199162078,763.9652464342388,-2.3943148195176036,21.80814701306165,0.3093592137856263
19070.970901282464,18291.545615329494,779.4252859529705,-2.4047646447943407,21.878997632177274,0.31203601291048905
18824.66163502484,18029.778600837937,794.8830341869017,-2.3889929664874217,21.949586720950048,0.31474206610534444
18581.706891529233,17771.385100494226,810.3217910350054,-2.395242672166205,22.019893213064726,0.3174785814879608
18342.06113577452,17516.30835875268,825.752777021835,-2.3609332000705763,22.089920770686355,0.32024304361199835
18105.658991649514,17264.49993973638,841.1590519131332,-2.3209093009281787,22.15965251652477,0.3230376647723244
17872.566528555526,17016.01818582195,856.5483427335731,-2.2477377066170448,22.22908560299522,0.325861930484547
17642.64463727436,16770.742356902516,871.9022803718437,-2.184446443163324,22.29820353763501,0.3287188930856481
17415.949097920347,16528.715198324247,887.2338995961012,-2.0980660086352145,22.36700899352949,0.33160746145916326
17192.42036287008,16289.899170613897,902.5211922561862,-1.9984962660091696,22.435476805498418,0.3345278884346224
16972.13593796298,16054.36265662384,917.7732813391398,-1.8588183958127047,22.503603360975145,0.3374796459404125
16754.99272604078,15822.01988561959,932.9728404211907,-1.7460930084489519,22.571363152950347,0.34046310032802357
16541.04014384646,15592.91272061799,948.127423228474,-1.6061457144533051,22.638762571179846,0.3434777956004547
16330.196874519906,15366.975760504487,963.2211140154202,-1.498718043185363,22.705787421536996,0.34652749374453534
16122.422763512503,15144.161238791956,978.261524720546,-1.3696283151148236,22.77243319341774,0.34960889678313967
15917.642600809724,14924.405700659381,993.2369001503428,-1.2453902965935413,22.838682843439404,0.35272438244631443
15715.861486268774,14707.696617833139,1008.1648684356353,-1.1208679393530474,22.9045316942942,0.35586992401210815
15517.031843196031,14494.013967614334,1023.0178755816977,-1.0069682714092778,22.96996040208182,0.35904849973294856
15321.169697921738,14283.355619448646,1037.8140784730908,-0.8840519181248965,23.034965474476337,0.3622579253768257
15128.21203150607,14075.68849759563,1052.5235339104377,-0.7563907174117048,23.099528912051284,0.36549866288237526
14938.194611693016,13871.018416105057,1067.1761955879583,-0.6166893998233718,23.1636369680461,0.3687693896614941
14750.939795952698,13669.19416601713,1081.7456299355676,-0.45740938193921465,23.227283234434495,0.37207517738086016
14566.557820051683,13470.302240654355,1096.2555793973286,-0.3051638984834426,23.29045948824846,0.37541370305914795
14384.911676664446,13274.237213157901,1110.6744635065438,-0.11173520627926337,23.35314801881946,0.3787872968561809
14205.972280522403,13080.939980930149,1125.032299592254,0.09977001419611042,23.41533660438404,0.38219268566761455
14029.711058691584,12890.415547198107,1139.2955114934766,0.3526001910213381,23.47702313640903,0.3856337121667958
13856.04045270837,12702.551301721382,1153.4891509869888,0.6031842791853705,23.538188829605616,0.3891060647961066
13685.067778220913,12517.484368730275,1167.5834094906386,0.8716497614805121,23.598833224623867,0.39261216394553156
13516.652712695695,12335.051311835103,1181.601400860592,1.1578780754716718,23.658947931768843,0.39614830420541064
13350.860485127947,12155.343963523273,1195.5165216046735,1.4459562671327149,23.718528341580818,0.39971866860210997
13187.536986730236,11978.189527041524,1209.3474596887108,1.692917967986432,23.77757971702148,0.40332205337389126
13026.762658314876,11803.683317327548,1223.0793409873274,1.9094207797097624,23.836055890064003,0.40695539809111336
12868.501190882933,11631.784004151637,1236.7171867312954,2.0750184398857527,23.893956071675575,0.4106199166918058
12712.629266215434,11462.378993022812,1250.250273192622,2.251723668683553,23.95126267125141,0.41431478664798504
12559.1078101294,11295.422166383463,1263.6856437459367,2.3909873282318586,24.00797552009356,0.418038970606805
12407.981536933106,11130.96797857286,1277.013558360246,2.5114433664202807,24.064081769306437,0.42179286546197686
12259.150457546672,10968.907791079464,1290.2426664672073,2.6012540571027785,24.11957720857459,0.4255765214169685
12112.690560266354,10809.317817536159,1303.3727427301953,2.6823376526954235,24.174435512040176,0.4293906955587668
11968.431347390851,10652.031923985127,1316.3994234057254,2.767580623847607,24.228663161732662,0.4332332147972184
11826.440799872538,10497.108787058054,1329.3320128144837,2.851511680877593,24.282240356147533,0.43710502348180746
11686.666802688153,10344.517487220557,1342.1493154675948,2.934951265080599,24.3351664910044,0.441007979523565
11549.100490285391,10194.240280978029,1354.8602093073623,3.016708369475964,24.387429839769943,0.444940610401011
11413.685183550851,10046.222118320835,1367.463065230016,3.06471747377509,24.43902076433782,0.44890345061766057
11280.386986165877,9900.43787292194,1379.9491132439368,3.0942081043467624,24.489924347527317,0.45289576361332085
11149.184215192541,9756.856887017311,1392.32732817523,3.13589490774757,24.540144520051754,0.45691718213917465
11020.15109161489,9615.56595939881,1404.5851322160825,3.1411595046520233,24.58968195692522,0.4609649238314899
10893.194451192385,9476.457322245129,1416.7371289472558,3.122043921837758,24.638528645592686,0.46504258455237873
10768.339407120542,9339.564294919533,1428.7751122010088,3.064326691783208,24.686649628175765,0.46914145685136255
10645.529395968813,9204.828208760888,1440.7011872079254,3.048004701216996,24.734064457339585,0.4732671912343984
10524.795328203834,9072.289854248971,1452.5054739548634,2.998759949550731,24.780733287050268,0.47741747156046843
10406.075968230623,8941.884646532499,1464.1913216981254,2.9951714894050383,24.826665842994473,0.48159469462188126
10289.38317616649,8813.63202564737,1475.751150519119,2.976449788598984,24.8718334580457,0.4857938342014942
10174.593552497152,8687.392625662187,1487.2009268349645,2.999141121341381,24.916240029398303,0.49001533093726096
10061.67284249958,8563.146258634917,1498.5265838646626,3.0559071537209093,24.959863366788817,0.4942509411860145
9950.592091871553,8440.844271285287,1509.7478205862658,3.149682456612936,25.002727032737234,0.49850505788096094
9841.334314845699,8320.490105648105,1520.8442091975937,3.278638887728448,25.044800913255948,0.5027738226850694
9733.88216686387,8202.054471543153,1531.8276953207178,3.4331218003790127,25.08608663082759,0.5070626024076521
9628.239590513695,8085.537791210134,1542.7017993035613,3.622971147240605,25.12654749905319,0.5113609896673376
9524.337370039959,7970.881696021193,1553.4556740187656,3.8285241046760348,25.16621775954155,0.5156700533794275
9422.155831116435,7858.054223357678,1564.1016077587574,4.07650454929535,25.20506948930538,0.5199893965478007
9321.626657572531,7747.002154308626,1574.624503263906,4.316864163149148,25.243131703225302,0.5243191880849706
9222.776416312778,7637.740507377674,1585.0359089351036,4.582457072894613,25.28035127719521,0.5286524366193163
9125.62495693157,7530.2980852748115,1595.326871656758,4.814154130392126,25.316768486642264,0.5329955996308602
9030.156141946634,7424.6510096958045,1605.5051322508305,5.0732182032224955,25.352342429758696,0.5373391316268922
8936.40364485548,7320.851985893983,1615.5516589614972,5.333230267024192,25.387144304721968,0.5416957587833027
8844.178726814704,7218.68571875961,1625.493008055094,5.607034871900396,25.42111066944395,0.5460548298589082
8753.706965557265,7118.414905818688,1635.2920597385778,5.909977310839167,25.454297246501003,0.5504111153753525
8664.738740845794,7019.759018381085,1644.97972246471,6.200830180918274,25.48663036772392,0.5547587152629149
8577.544829101931,6923.008973491246,1654.5358556106842,6.466658920988266,25.518171624665822,0.5591030316032269
8491.775528251364,6827.800300449825,1663.9752278015392,6.711850722829695,25.5488765318145,0.5634394565038897
8407.61938360163,6734.317309607745,1673.3020739938843,6.946952983205847,25.578795073055684,0.5677696364220027
8324.85684371666,6642.357927169643,1682.4989165470174,7.187009952263907,25.60789732314245,0.5720915533268717
8243.590604438732,6551.998040850202,1691.5925635885299,7.449795592132432,25.636242237381314,0.5764109214014996
8163.821288932417,6463.269266230832,1700.5520227015852,7.720280747234938,25.66373200606236,0.5807228440413325
8085.487888473477,6376.091848222209,1709.396040251269,7.998211297039234,25.690442817290922,0.5850254919725558
8008.436211184067,6290.315951738422,1718.1202594456458,8.268842992234568,25.71634594922021,0.5893172352437098
7932.930174822612,6206.205572551993,1726.7246022706188,8.514998929429566,25.741446888350467,0.5936029465295357
7858.64623750715,6123.432944643033,1735.2132928641165,8.721789642964723,25.765727366309406,0.5978747554413449
7786.035797247918,6042.4503246691,1743.5854725788176,8.905119079463475,25.789207974436703,0.6021363281202575
7714.50408735918,5962.68235327034,1751.8217340888393,9.068165793505614,25.811898108780674,0.6063862809645676
7644.543360849133,5884.588913781522,1759.9544470676105,9.206299369601766,25.83380931913645,0.6106299798288686
7575.698529855234,5807.743907878097,1767.954621977136,9.386367805869668,25.854884663635875,0.6148520212257473
7508.190529006128,5732.34542160885,1775.8451073972774,9.57805184040626,25.875209409020417,0.6190706265747346
7441.607936349927,5657.968465604167,1783.639470745759,9.799040480902477,25.894688830994987,0.6232575390549367
7376.344617696273,5585.054675719453,1791.2899419768198,10.038564986512938,25.91340607405915,0.6274360992646518
7312.186419007828,5513.30852209058,1798.8778969172479,10.314348478270404,25.93125500652214,0.6315837447479183
7249.367199573228,5443.057573113518,1806.3096264597104,10.597999744401022,25.948343393539144,0.6357164428580309
7187.570944105868,5373.890952660813,1813.6799914450553,10.920479718472052,25.964559350675685,0.6398147454662506
7127.104745762566,5306.215799359877,1820.8889464026893,11.239692413386365,25.980041027015393,0.6438938596634636
7067.410580588455,5239.352537716269,1828.0580428721862,11.584474954921461,25.99464290999821,0.6479344254227027
7009.107023312641,5174.049898050397,1835.0571252622437,11.890056313612149,26.008494394015656,0.6519542854119375
6951.50541767698,5109.473553511908,1842.0318641650717,12.244226566210273,26.021507055897906,0.6559376947625006
6895.365335313767,5046.551878254214,1848.8134570595535,12.530855077915476,26.033794133212467,0.6598904924003697
6839.760805730828,4984.160596946341,1855.6002087844874,12.81133850783226,26.04528029808555,0.6638048857797428
6785.6737827211955,4923.494264371516,1862.1795183496795,13.048601248665364,26.0560735949549,0.6676869351545841
6732.300641049593,4863.537088472675,1868.7635525769178,13.291534088624758,26.066080119942182,0.6715335165582923
6680.191641061048,4805.041985934301,1875.1496551267478,13.546547870646464,26.075387380542693,0.6753459995840615
6628.8937223697085,4747.355023552927,1881.5386988167816,13.833814826561138,26.08388924283936,0.6791153952723872
6578.680062691497,4690.937868179364,1887.7421945121328,14.127065745051368,26.091729818638633,0.6828533112144952
6529.371174303923,4635.461207744234,1893.9099665596889,14.415286106683197,26.098808395163058,0.686540002360096
6481.066185851358,4581.142778475412,1899.9234073759453,14.698202012878028,26.105263807173205,0.690189503117308
6433.528031923346,4527.625103255636,1905.90292866771,14.962607680929068,26.110932194903803,0.6937883742012493
6387.032184894439,4475.296934774061,1911.7352501203775,15.234546345149283,26.11596824615265,0.6973546692641847
6341.273703032888,4423.757654991046,1917.5160480418417,15.47765288483788,26.120220212131233,0.7008700803125807
6296.65442464823,4373.478315515215,1923.1761091330145,15.743942441753461,26.123837073270174,0.7043465925723394
