energy,prior,fidelity,mass,psnr,ssim_indices
51992.11512367952,51992.11512367952,0.0,0.0,20.00370775777917,0.4823919823322271
51220.20813471297,51219.89395294867,0.31418176430168804,1.6177149828290567,20.101739832886416,0.4857562235604973
50455.91394136121,50454.66353933562,1.2504020255839334,3.2542524626187515,20.199707909793133,0.4891191497762512
49699.35189540853,49696.55311026968,2.79878513885538,4.917538221605355,20.29758429421529,0.4924801883797511
48950.732319750736,48945.78320008533,4.949119665405601,6.598020254372386,20.395339973391962,0.49583855417050215
48210.092265366424,48202.4018290841,7.690436282325814,8.299961916040047,20.49294278578686,0.4991921905561172
47477.560712574676,47466.54846424159,11.012248333088143,10.008353037352208,20.590358190740538,0.5025402282750928
46753.26462276874,46738.3621106532,14.902512115539102,11.743897907159408,20.687552273346277,0.505881109326458
46037.32672638591,46017.976942875684,19.349783510223837,13.515964279169566,20.784492494685367,0.5092139307476131
45329.826239488306,45305.48470253801,24.341536950299837,15.323107642732793,20.88113960849357,0.5125374022541749
44630.830140197664,44600.9648589176,29.86528128006302,17.14997229493747,20.97746564312262,0.5158518180405105
43940.42383461979,43904.51516435425,35.90867026554363,19.001981311346754,21.073428626077405,0.5191548683926714
43258.65517413066,43216.19683042126,42.45834370940545,20.880428274336737,21.168993210033506,0.5224458883488573
42585.544844911994,42536.04357932912,49.501265582877956,22.775666909874417,21.264119125726914,0.5257238966299461
41921.16982926758,41864.14534530978,57.02448395779812,24.699817542394157,21.358772653342584,0.5289882365176728
41265.54362436177,41200.52912808515,65.01449627661849,26.670332555804634,21.452912134351454,0.5322377013397225
40618.7554176963,40545.297840604646,73.4575770916591,28.681090103578754,21.5465017158338,0.5354718322879244
39980.838520723264,39898.499467638125,82.33905308514055,30.726264903816627,21.639494753206165,0.5386888661917038
39351.706574276075,39260.06162141714,91.64495285893575,32.81523544162337,21.731854190583746,0.5418883925498071
38731.382550826034,38630.018908779624,101.36364204640961,34.935658889240585,21.823525599712063,0.5450668522422604
38119.75168764295,38008.270477203325,111.48121043962674,37.08573108706332,21.91447828237571,0.5482237835380622
37516.79672436581,37394.81097629554,121.98574807026813,39.25761449894344,22.00465282626631,0.5513579463844513
36922.63659645233,36789.77502168223,132.8615747700951,41.42531073879218,22.094022551817638,0.5544695111408973
36337.24631509145,36193.15379473693,144.09252035451578,43.58870459406171,22.182531433605185,0.5575552283117401
35760.52569029072,35604.8582911842,155.6673991065153,45.74791566953354,22.270144917019007,0.5606147284059095
35192.45462589865,35024.883455281044,167.57117061760573,47.930804391085985,22.356816238273943,0.5636467298455882
34633.08410329158,34453.29442033303,179.78968295854452,50.13678786698438,22.442514315814634,0.5666518974068949
34082.33046631085,33890.021484986886,192.30898132396118,52.353351517769624,22.527170071391616,0.5696268017438721
33540.20721050958,33335.09373943741,205.11347107216545,54.58187188807642,22.610746823178793,0.5725695742242399
33006.592204788256,32788.3974170261,218.1947877621538,56.81060244668333,22.693191010316248,0.5754795099441052
32481.48439031292,32249.947543089882,231.53684722303794,59.04967019239848,22.77447699616305,0.5783572388163146
31964.683983925195,31719.55669928894,245.12728463625686,61.294789269333705,22.854547867775143,0.5812006418174168
31456.162928215042,31197.209132133536,258.95379608150796,63.55538149770291,22.93335591218732,0.58400870738738
30955.885867792305,30682.88117416268,273.0046936296228,65.80887777240423,23.01085929147362,0.5867805457201931
30463.86266956452,30176.59775450394,287.2649150605825,68.0381855845917,23.087023381312534,0.5895149531589184
29979.978886528253,29678.256183848644,301.72270267961096,70.25289217558748,23.161790611030113,0.5922090911659355
29504.13284583838,29187.76689525966,316.36595057871654,72.45767166306905,23.23514633577844,0.5948629159170266
29036.291784406432,28705.111037442377,331.18074696405614,74.65302182793675,23.307028177285424,0.597474639687701
28576.34101415241,28230.18284998363,346.1581641687796,76.86012160753307,23.377409934700566,0.6000441800345273
28124.300462294388,27763.01645201793,361.28401027645606,79.09095941708074,23.446254968886873,0.6025702094073644
27680.106790839942,27303.560362692366,376.54642814757455,81.34236482452252,23.513537450781143,0.6050510672076947
27243.684879271208,26851.755337189694,391.92954208151576,83.60488956754853,23.579208443295272,0.6074845721611198
26814.74355323638,26407.312255203855,407.43129803252793,85.84925760020269,23.643244336650678,0.609872311618329
26393.25582969137,25970.21684726017,423.03898243120216,88.1285112266778,23.705586050963532,0.612209535473817
25979.15967851185,25540.412810813217,438.746867698633,90.43136135193345,23.766226999745435,0.6144979788658687
25572.49316219409,25117.95916956408,454.5339926300076,92.7603045134747,23.825135969439344,0.6167347836788506
25173.052781513983,24702.654777204512,470.3980043094724,95.12221706796845,23.882291793496453,0.6189197780019021
24780.665023833186,24294.336722193642,486.32830163954435,97.52150246172096,23.93766470817655,0.6210501806453562
24395.287640138333,23892.96488560095,502.3227545373819,99.95331126681413,23.99122713382337,0.6231274406503835
24016.762678361436,23498.395748477808,518.3669298836282,102.41792513424298,24.042981883886885,0.6251496384140376
23645.048729663835,23110.58997148435,534.4587581794854,104.87933449896809,24.09287905114845,0.6271172165083847
23280.067994362093,22729.487961135557,550.5800332265336,107.38859823376697,24.140930199165886,0.6290288809594128
22921.68604814558,22354.953354017674,566.7326941279078,109.88472301166621,24.187100099598737,0.6308809321968795
22569.821355152668,21986.919720338166,582.9016348145032,112.39152203561389,24.231382507798536,0.632676730914723
22224.414829051,21625.330658051673,599.0841709993267,114.87679741975444,24.27378437718387,0.634413057958222
21885.395476341477,21270.125789961297,615.2696863801797,117.38479357933102,24.31426482116414,0.6360882385305872
21552.77447094612,20921.325703983843,631.4487669622769,119.86116905412928,24.352852973404282,0.6377040936274799
21226.392053200605,20578.777812970002,647.6142402306019,122.39681518527505,24.389517811867435,0.6392543908529951
20906.095030294873,20242.328972209747,663.7660580851255,124.93123542387912,24.42428806105014,0.6407423550537407
20591.79734043056,19911.902912923888,679.8944275066709,127.53796239182702,24.45713672751113,0.6421639673215878
20283.54921806106,19587.555458586423,695.993759474638,130.20376331901934,24.488099469094035,0.643520616339338
19981.11181916319,19269.0607640139,712.05105514929,132.95581011415925,24.517180647369162,0.6448099064599851
19684.4791626814,18956.409473298212,728.0696893831868,135.75470371975098,24.54438427967449,0.6460325824477285
19393.490767715808,18649.451781848005,744.0389858678029,138.60494044194638,24.569715513351653,0.647188864965178
19108.059814082895,18348.10540580512,759.9544082777747,141.4528137579764,24.593194353589926,0.6482772018238908
18828.097155919415,18052.285783730884,775.8113721885312,144.32207275515248,24.614857066352567,0.649298512108714
18553.545277493326,17761.94052937289,791.6047481204365,147.2134599462297,24.634731342760073,0.6502557071066851
18284.245967446455,17476.92063470669,807.3253327397656,150.15988062725228,24.652808986770385,0.6511454600004464
18020.169080709653,17197.198487835707,822.970592873945,153.10185986179567,24.66917146976428,0.6519708708815828
17761.195224421022,16922.652021612455,838.5432028085669,156.1132957344962,24.683763917742386,0.6527263042614883
17507.23116493771,16653.192986382164,854.0381785555459,159.15327689876722,24.696680840195985,0.6534147627907022
17258.21409191233,16388.759531202846,869.4545607094846,162.26710462389747,24.707874481411803,0.6540302178212921
17014.084504307382,16129.298359414119,884.786144893265,165.40214361166,24.71745542813755,0.6545834262388781
16774.83832709254,15874.817308905227,900.0210181873143,168.60819615743821,24.725397128692208,0.6550701292034254
16540.48594501997,15625.32476591522,915.16117910475,171.8598430579441,24.731816401120422,0.6554947120755266
16310.760488887408,15380.566372438645,930.1941164487644,175.20766460425511,24.736672856807704,0.6558532651955497
16085.618850806957,15140.486006671044,945.132844135912,178.61296964550274,24.740063951553427,0.6561531309436055
15864.897185306403,14904.92812524844,959.9690600579632,182.08718601688452,24.741932590765746,0.6563825000834417
15648.58902748066,14673.893090250649,974.695937230012,185.57652017769578,24.742437698914603,0.6565529525079055
15436.487377265603,14447.167031472252,989.3203457933503,189.14011929942353,24.74150764263609,0.6566535568347787
15228.583155312192,14224.753254756748,1003.8299005554442,192.70367166191863,24.739277987253114,0.6566889539732631
15024.771351499485,14006.526406693052,1018.2449448064333,196.32457781687845,24.735666960249667,0.6566528865202186
14825.09401036595,13792.56199642129,1032.5320139446605,199.96361711630016,24.73082599234539,0.6565527620934842
14629.367824905334,13582.648657694215,1046.7191672111178,203.69709700833482,24.72470079056112,0.6563880327669908
14437.670185771238,13376.888008360598,1060.7821774106392,207.45232856812072,24.71741366966224,0.6561646123461184
14249.85847314134,13175.126008677335,1074.7324644640041,211.2592346694728,24.708939922045182,0.6558793968913381
14065.864100610288,12977.306082420766,1088.5580181895216,215.0907534577418,24.699359235355665,0.6555327538881873
13885.69454181592,12783.427345807126,1102.2671960087928,218.97218271743623,24.68869917021769,0.6551262743043388
13709.220290241587,12593.374552421734,1115.8457378198532,222.9079128501471,24.676962308221256,0.6546577386824253
13536.320931249416,12407.009614806371,1129.3113164430447,226.91546674951678,24.664207024374303,0.6541321337239848
13366.893208905274,12224.246667760352,1142.646541144922,231.00005752679135,24.650489749542306,0.6535460341612961
13200.938735351767,12045.071823916787,1155.866911434979,235.1345575558662,24.635831135501792,0.6529019901849775
13038.371074407369,11869.415421530895,1168.955652876474,239.33160884058452,24.620298618101057,0.6522035182665485
12879.167740607574,11697.241920794057,1181.925819813517,243.56024489266565,24.603896996251734,0.6514453980343476
12723.349467728098,11528.58233478626,1194.767132941837,247.8805961364851,24.586658083536577,0.6506354969593664
12570.576366844014,11363.08584872292,1207.4905181210938,252.214302826309,24.56862943828668,0.6497663115175146
12421.141392596239,11201.053919533877,1220.0874730623616,256.6126349646365,24.549827726112127,0.648849505276111
12274.665714617597,11042.094012448872,1232.5717021687253,261.01643110852456,24.530305640354158,0.6478758388969083
12131.260692113416,10886.332130735387,1244.9285613780291,265.45449298365565,24.510091882140976,0.6468626521849749
11990.707700223362,10733.533385709039,1257.1743145143228,269.93106843627174,24.489219418063858,0.6457917592803241
11853.030928031238,10583.734487615175,1269.2964404160628,274.42541976265784,24.467709097142688,0.6446785329532738
11718.044149941554,10436.735361039831,1281.3087889017222,279.0065730318456,24.44560972033254,0.6435148920386681
11585.82116376382,10292.627310329075,1293.1938534347448,283.65586675440136,24.422894584081085,0.6423021836860641
11456.217191997765,10151.243921872292,1304.973270125472,288.4046455742209,24.399678937970585,0.6410442565041713
11329.216008845598,10012.581585488215,1316.6344233573843,293.24040201932075,24.375890763218123,0.6397327587064273
11204.830617562346,9876.64713290645,1328.1834846558963,298.1737564755167,24.351652348943066,0.638386620222345
11082.839600395771,9743.23081612268,1339.6087842730929,303.1833848788374,24.326880895648824,0.6369798284238547
10963.425095552995,9612.497473075817,1350.9276224771786,308.3012348237098,24.301714579048017,0.6355402187911854
10846.374818018416,9484.262960120586,1362.111857897829,313.5107017572591,24.27608510794711,0.63405032428322
10731.741292453155,9358.548291317169,1373.193001135985,318.82615975315275,24.250084867821265,0.6325247652367055
10619.494436092162,9235.346320073857,1384.1481160183055,324.2199357232457,24.223658408305802,0.6309439143567733
10509.599343385593,9114.601448817304,1394.9978945682885,329.74361841169593,24.196916542012406,0.6293305917879456
10402.020676190143,8996.291420105428,1405.7292560847152,335.34375290674507,24.169803245695405,0.6276630123901539
10296.495303492757,8880.13644347362,1416.3588600191354,341.08878486459434,24.142378964213687,0.6259629450614622
10193.280580645927,8766.405629007437,1426.8749516384903,346.91827837722667,24.114638221085695,0.6242241511906436
10092.295762261754,8655.003947731344,1437.2918145304093,352.87564542698965,24.086588629867126,0.6224468344406252
9993.38536622585,8545.79539358171,1447.58997264414,358.9060267372115,24.058304865136392,0.6206365496897006
9896.69552018472,8438.911561569212,1457.7839586155085,365.0579510766984,24.029787521285265,0.6187911785570085
9802.081948282117,8334.218890252037,1467.86305803008,371.26833768851066,24.00100976065609,0.6169105468982125
9709.433612839295,8231.583025636446,1477.8505872028495,377.5780838826031,23.972083870289083,0.6150052120548153
9618.71360889622,8130.9838511712,1487.7297577250195,384.03968621388776,23.94291622488275,0.6130674991745954
9530.085926250618,8032.583914978275,1497.502011272344,390.64935145698837,23.91366925149526,0.6111140188464067
9443.194204539544,7936.008795936148,1507.1854086033966,397.42278705553326,23.884163291217657,0.6091197376602667
9358.355541604597,7841.59616084369,1516.7593807609062,404.3912696075131,23.854608855132323,0.6071227252356213
