energy,prior,fidelity,mass,psnr,ssim_indices
26424.103792963364,26424.103792963364,0.0,0.0,26.03710714958387,0.7190886161797768
25903.57006036672,25903.352460662052,0.21759970466781514,-0.49684895838436205,26.203607947281668,0.7252518757255938
25392.321034749013,25391.458279050963,0.8627556980507555,-1.0397810938156908,26.367806540471687,0.7314135907844248
24890.835535264665,24888.91248852681,1.9230467378560194,-1.6169943540444365,26.529343756362337,0.7375651325765555
24399.419486133793,24396.03440292559,3.3850832082009514,-2.193722891708603,26.68785938182928,0.7436968780486689
23918.3580981412,23913.123537242802,5.23456089840026,-2.794444827683037,26.84296793638453,0.7498029472530622
23447.76028162439,23440.30365736425,7.456624260140033,-3.4246397159295157,26.994261437380295,0.7558757857837485
22987.834090843717,22977.79845388114,10.03563696257593,-4.083726381053566,27.14135858004699,0.7619069206434949
22538.730602798147,22525.77519615398,12.955406644165679,-4.738022324250778,27.283850680424365,0.767886994778701
22100.65240008918,22084.453279289148,16.199120800031185,-5.392532501457026,27.42134536927475,0.7738047065946234
21673.551422116914,21653.80222387382,19.749198243094185,-6.057733819412533,27.553467326109008,0.7796507618017255
21257.45776734042,21233.86859017997,23.589177160449903,-6.7365525893255835,27.679792920054112,0.7854194646052645
20852.37105964094,20824.66948538185,27.70157425908907,-7.424892600174644,27.799965192996375,0.7910993570856991
20458.30953823851,20426.23992872665,32.06960951186229,-8.130482077409397,27.91367452482536,0.796682550848559
20075.045183231156,20038.36924771051,36.67593552064543,-8.816305431639194,28.020576503024227,0.8021607339229068
19702.42662349088,19660.92086824116,41.50575524972169,-9.521340574021451,28.12035035980375,0.8075232466475986
19340.313396442256,19293.76921667983,46.54417976242659,-10.263761302732746,28.212685580870783,0.812759968099531
18988.61491348667,18936.84029892874,51.77461455793074,-11.001488921261625,28.297330751433677,0.8178630455509398
18647.159159438837,18589.97635078276,57.182808656079246,-11.74579119955888,28.37407325848556,0.8228236329332091
18315.75436863429,18252.998512702954,62.7558559313358,-12.479689583575237,28.44274165281778,0.8276303891672656
17994.1694648491,17925.692080827266,68.47738402183414,-13.173272523315973,28.503237822084472,0.8322767498472302
17682.25104297876,17607.91198645897,74.33905651979157,-13.853373100268072,28.555471217914214,0.8367542049517157
17379.77482386681,17299.45262057083,80.32220329597912,-14.519625016735517,28.59940197474558,0.8410532684906539
17086.595349580963,17000.178318619604,86.41703096135957,-15.228492825408466,28.635090869065838,0.8451688276693129
16802.44136039319,16709.829253595322,92.61210679786744,-15.973347212304361,28.662578274111546,0.8490945696788034
16526.92525188292,16428.02783266219,98.89741922073125,-16.759262256106013,28.681983385279946,0.8528244711504106
16260.087920037495,16154.825861306354,105.26205873114078,-17.530272962030722,28.69339550964632,0.856351146350125
16001.757274989512,15890.062333518135,111.69494147137618,-18.33135979733197,28.69706745813204,0.8596725502007111
15751.756230196896,15633.570525810344,118.18570438655146,-19.122461807739455,28.693185568842058,0.8627834819342043
15509.730393637208,15385.002758564997,124.72763507221163,-19.92563479686214,28.682010513673642,0.8656798432700178
15275.43653866433,15144.124349251095,131.31218941323527,-20.74710769635567,28.663793247193485,0.8683589479865589
15048.66127255105,14910.726386495662,137.9348860553878,-21.58138161349052,28.638882139364213,0.8708200060931142
14829.192552601718,14684.605540167959,144.5870124337595,-22.412479770064238,28.607602102322353,0.8730595153430042
14616.744334558003,14465.477327710181,151.26700684782236,-23.25184019964945,28.57037716354857,0.8750839633041864
14410.97393758634,14253.006065014899,157.96787257143987,-24.053707846280304,28.52756085490548,0.876894532446754
14211.656461220738,14046.968826225113,164.68763499562536,-24.85936671451782,28.479442218070744,0.8784895479322296
14018.6254257254,13847.201869522083,171.4235562033173,-25.63760893912695,28.42640073799838,0.879877476356565
13831.645239267058,13653.476724181874,178.16851508518423,-26.438757113777683,28.368760076223754,0.8810573484911685
13650.358455475787,13465.434742011412,184.92371346437503,-27.255188657072722,28.30691375147465,0.8820412119640388
13474.41745609266,13282.728536317618,191.68891977504157,-28.111370452286792,28.24110605051258,0.8828213737547937
13303.809004747756,13105.351585903978,198.45741884377875,-28.99565035031992,28.171735028874426,0.8834110649907431
13138.27178156139,12933.037103468934,205.23467809245554,-29.943730325234355,28.099092472618157,0.8838008201020994
12977.663171782584,12765.648853106535,212.01431867604884,-30.929604519798886,28.02350501942779,0.884008920181199
12821.740942412713,12602.944296490943,218.79664592177042,-31.915655532793608,27.945231875074995,0.8840270791418385
12670.248633173867,12444.66884079008,225.5797923837868,-32.90951282753667,27.864594797442834,0.8838734386827797
12523.084748924479,12290.717959922069,232.36678900240918,-33.9471753618127,27.781852419160955,0.8835488028693188
12379.934315363505,12140.783222519447,239.15109284405855,-35.01527626023744,27.69718053241452,0.8830524322525323
12240.767926733259,11994.82394574235,245.94398099090944,-36.141505985491676,27.610883979607838,0.8824002942239669
12105.34569276872,11852.612693607896,252.73299916082425,-37.295669044789975,27.523098895381004,0.881586588727294
11973.75052213563,11714.22377105295,259.526751082679,-38.52426813574857,27.43405778662051,0.8806255945583333
11845.634801026179,11579.313695753941,266.3211052722376,-39.80329484945105,27.34391639160819,0.8795168917136369
11720.789465054879,11447.675736081062,273.1137289738169,-41.13254451492685,27.252922194953992,0.8782743650890877
11599.082805834343,11319.162029835172,279.9207759991714,-42.50780754214793,27.161165660351973,0.8768983683939142
11480.38996659325,11193.661397634309,286.72856895894023,-43.920456856751116,27.068868863959285,0.8753981499403546
11364.450575140814,11070.89351201563,293.55706312518475,-45.33769599822699,26.97611543358201,0.8737775745400369
11251.199042998775,10950.808599716072,300.39044328270194,-46.82194134076417,26.883087692047056,0.8720429069796403
11140.52323535225,10833.282123895724,307.24111145652563,-48.281147111571045,26.78989289447292,0.8701970982729738
11032.242401099691,10718.142592523704,314.0998085759884,-49.8021888644289,26.69664118305979,0.8682462441138706
10926.413865785093,10605.438830123132,320.97503566196065,-51.27911933739961,26.603431175933906,0.8661951927318453
10822.880982374849,10495.015387977786,327.86559439706184,-52.7894608129136,26.510280164859374,0.8640442441567856
10721.37988096894,10386.608290345408,334.7715906235312,-54.28041199580184,26.41734753846663,0.8618076282430227
10621.95599938853,10280.264498921426,341.69150046710365,-55.81032669995329,26.324631756483896,0.8594846430651124
10524.369148619007,10175.731668610986,348.637480008021,-57.33051401922421,26.23227234851384,0.8570886066451386
10428.736279401386,10073.145657813877,355.59062158750874,-58.897987893840764,26.140255862572882,0.854612342947768
10334.839675542597,9972.262330606376,362.57734493622024,-60.43794314500701,26.048707537577055,0.8520721950740929
10242.72327094969,9873.15245879378,369.5708121559083,-62.00531104093534,25.957561585220425,0.8494608053738881
10152.175190320855,9775.575604051835,376.59958626901914,-63.55836837393872,25.867023208047616,0.84679818091863
10063.39549199271,9679.759748410312,383.63574358239794,-65.12110169164953,25.776912303852168,0.8440665590559367
