energy,prior,fidelity,mass,psnr,ssim_indices
196568.19785201538,196568.19785201538,0.0,0.0,16.470674181848118,0.2909860565484786
194359.8073012393,194358.91153195538,0.8957692839320601,0.6477972847642377,16.541808690815746,0.29308459193342945
192167.65093056086,192164.08126246775,3.5696680931012654,1.2850756526459008,16.6130687794522,0.29519454903441794
189992.00556546377,189984.00494280254,8.000622661218218,1.910737749596592,16.684450676861733,0.29731531315410237
187833.13645148915,187818.96922825597,14.167223233182268,2.538597328180913,16.75594890597346,0.2994470598019188
185691.1622143366,185669.11499240267,22.047221933934896,3.1696822536177933,16.827558513453145,0.30159010746077614
183566.42768556043,183534.8099793092,31.617706251223485,3.8003807599889114,16.8992744878894,0.303743133014927
181459.02665566836,181416.17185165134,42.85480401701823,4.434186322439928,16.971092761520246,0.3059066976834614
179369.24676879914,179313.51236642536,55.73440237378847,5.067850082938094,17.043008470526814,0.30808103058821296
177297.10589728924,177226.87364567953,70.23225160969847,5.691901808604598,17.1150176596028,0.31026626879639957
175242.74405767443,175156.42069007523,86.323367599201,6.325784054817632,17.187114780663954,0.3124617038953101
173206.2669784263,173102.28401331304,103.982965113261,6.965090059384238,17.259295187412185,0.31466715829868264
171187.84197711138,171064.65794222342,123.18403488796552,7.596021150413435,17.331552516982196,0.3168827553979689
169187.4851311431,169043.58363749433,143.90149364877968,8.225069928041194,17.40388123468858,0.31910811741858264
167205.28485807145,167039.17677071286,166.1080873585761,8.845288890064694,17.4762771303486,0.32134354639830076
165241.26353274786,165051.4862638018,189.77726894605306,9.450060473405756,17.548733825150226,0.32358863547681005
163295.44690215684,163080.56435335168,214.88254880514137,10.04068837367231,17.621246136545412,0.32584352537203465
161367.82367815683,161126.42619030917,241.39748784766707,10.63996998470975,17.693809298990658,0.32810813919365955
159458.5363757196,159189.24169449473,269.29468122484104,11.240217212238349,17.766415071387375,0.33038159368106423
157567.67371964213,157269.128494841,298.54522480115685,11.842822544334922,17.839057581257787,0.332664070693296
155695.37909693993,155366.25877981234,329.1203171275917,12.444323732284829,17.911732108442372,0.33495622589764107
153841.61594959552,153480.62369620195,360.9922533935838,13.046475516399369,17.98443360192295,0.3372577283631551
152006.48039170663,151612.3502659679,394.1301257387393,13.658314362808596,18.05715290688067,0.339568595289202
150189.9223803872,149761.41644972685,428.5059306603603,14.300929509103298,18.12988574268975,0.3418885928080711
148391.9399041825,147927.84834246332,464.09156171918113,14.965498432167806,18.20262276564558,0.34421654395933693
146612.5167092688,146111.65937408493,500.8573351838545,15.661305087152869,18.275358990108035,0.34655226313035614
144851.73610284692,144312.96449968845,538.7716031584582,16.355561665433925,18.348085834124074,0.34889570255764063
143109.53117426328,142531.72511717814,577.8060570851513,17.023392971837893,18.42079610877853,0.35124727521922244
141385.81317784922,140767.88031362038,617.9328642288467,17.661949537752662,18.493482388758768,0.353606647821284
139680.60010552625,139021.47590413908,659.124201387166,18.30697954824427,18.56613922736684,0.3559740481360268
137993.85144599443,137292.50207507424,701.3493709202007,18.943490034143906,18.63875941456152,0.3583491543335935
136325.47076892375,135580.8908915285,744.5798773952366,19.569382509449497,18.711335269030226,0.36073208843337906
134675.3018727762,133886.5129367591,788.7889360171114,20.17116925859591,18.783859198439657,0.36312265800000626
133043.33859750128,132209.3890351055,833.9495623957912,20.77047245646827,18.856318939602936,0.36552080592003894
131429.53288345443,130549.50215271884,880.0307307355981,21.379424423910677,18.92870860808755,0.3679257991696195
129833.90722575471,128906.90192157212,927.0053041825877,22.006086821027566,19.001021808788273,0.370337538249825
128256.40804575622,127281.5638618747,974.8441838815156,22.648445008147974,19.073248974814586,0.3727560270373303
126697.09680211046,125673.58352072527,1023.5132813851914,23.2990054031834,19.14538294315858,0.3751812996154547
125155.76352552768,124082.77570198577,1072.9878235419212,23.93175412621349,19.217414435988857,0.37761331702570305
123632.32651445396,122509.08429715768,1123.2422172962788,24.555531290825456,19.28933325186412,0.3800510362116467
122126.74808602313,120952.49942406238,1174.2486619607516,25.17944841622375,19.36113294616213,0.38249494794704825
120638.93175556097,119412.95398770555,1225.977767855429,25.792315592290834,19.43280097466211,0.38494480263402453
119168.65217194452,117890.25364343173,1278.3985285127906,26.424197819200344,19.50433155800177,0.38740051539092696
117715.83326620716,116384.34434145736,1331.4889247498043,27.061641982698347,19.575713437487572,0.3898620833366984
116280.33364062682,114895.11429814377,1385.2193424830498,27.712214297091123,19.646940065369016,0.3923298143324396
114862.07264102488,113422.50981013852,1439.5628308863484,28.400280158093665,19.71799592745811,0.39480308441864437
113460.96729804004,111966.46928527103,1494.4980127690035,29.128670396807138,19.7888760454254,0.3972817686497662
112076.90756906697,110526.91425173316,1549.993317333813,29.926616711716633,19.859567581609042,0.3997650644084714
110709.80815386864,109103.78010795066,1606.0280459179758,30.772560182842426,19.930061615115683,0.40225355632622656
109359.48875713305,107696.91879901619,1662.5699581168533,31.663544114213437,20.000345336372064,0.4047459296628247
108025.85387301048,106306.253410327,1719.6004626834754,32.583850639057346,20.070411886347557,0.40724257527062085
106708.83464412534,104931.74579639624,1777.0888477291064,33.53992244240362,20.140247524038912,0.409742985146838
105408.35644147095,103573.3355992856,1835.0208421853642,34.49784711544635,20.209843699717922,0.41224728162977325
104124.2091262111,102230.8526026502,1893.3565235609085,35.469800371618476,20.27918781284315,0.4147547088029151
102856.36394915618,100904.27334505037,1952.0906041058045,36.4977642421145,20.34827237398996,0.4172660144287594
101604.53365294509,99593.34473310305,2011.1889198420458,37.55380356340902,20.417084758848354,0.41978066267105313
100368.61948501655,98297.97544559176,2070.644039424796,38.59881797985872,20.48561079540204,0.42229836220445466
99148.54091693036,97018.12430277163,2130.4166141587384,39.634646207035985,20.55383619498185,0.42481864360037386
97944.27778208906,95753.78494312146,2190.4928389676056,40.67035328311613,20.621749023822584,0.4273414086485947
96755.59753732849,94504.75727746246,2250.8402598660277,41.70375674206298,20.689338308029924,0.42986676052874645
95582.24747381621,93270.79373686272,2311.453736953496,42.72950584953651,20.75659512834056,0.43239495684307494
94424.24139198016,92051.94432199682,2372.297069983333,43.77779068576638,20.823508810222002,0.43492477891982456
93281.46739280107,90848.11290445719,2433.3544883438954,44.83005799440434,20.890063904747443,0.437455980455202
92153.81489033553,89659.21300151011,2494.6018888254116,45.897579402604606,20.956250171004665,0.4399885581205761
91041.10628083521,88485.08367455426,2556.022606280953,47.01362991868518,21.022053940640948,0.44252176478563704
89943.27707714005,87325.68358821709,2617.593488922962,48.15577630372718,21.08746615667385,0.44505582659185383
88860.08781656993,86180.7892867266,2679.298529843317,49.30708287557354,21.152473338839894,0.4475905305091333
87791.47618462252,85050.35845575418,2741.1177288683375,50.4616859954549,21.21706694352114,0.45012612315937733
86737.2344662564,83934.20133119567,2803.0331350607325,51.58375762682408,21.281228731729847,0.4526617940151567
85697.2131848185,82832.18928412837,2865.023900690131,52.733405156002846,21.344950579268254,0.4551976228118127
84671.36243260794,81744.28787629481,2927.0745563131386,53.87943208543584,21.40820906342701,0.4577325731866471
83659.54960287747,80670.38652600977,2989.163076867701,55.05746723135235,21.47100326087847,0.460267377234388
82661.57250737728,79610.29120916863,3051.2812982086457,56.231641617720015,21.53331010564928,0.46280130652089974
81677.26591605818,78563.85936772102,3113.4065483371683,57.40134826366557,21.5951223909086,0.46533394786794724
80706.69756787085,77531.17579455391,3175.521773316948,58.57282158994349,21.6564249422822,0.4678651318626528
79749.58547319383,76511.97570322637,3237.609769967453,59.75180172116961,21.717200865363505,0.4703939822362721
78805.83384417764,75506.17395335448,3299.659890823168,60.97366334806429,21.777441540095317,0.4729209575532289
77875.15052585333,74513.49698075023,3361.653545103097,62.23407168814447,21.8371328917932,0.4754446759441575
76957.40866552366,73533.81913347308,3423.5895320505756,63.51324045652291,21.89626674493119,0.4779656818440205
76052.42752331248,72566.99099116246,3485.4365321500245,64.75593515887158,21.954831166786644,0.48048350976365944
75160.25599393621,71613.06077554089,3547.1952183953313,66.00043986644596,22.012811589971548,0.48299785707148657
74280.57454458943,70671.7424000224,3608.832144567034,67.26726843230426,22.07019498329613,0.4855076133942746
73413.40710879139,69743.05738064321,3670.349728148181,68.57904443726875,22.126968643509596,0.48801314093544024
72558.44528937018,68826.71251558838,3731.732773781797,69.88989539683098,22.183115765344347,0.49051251666461776
71715.82646028162,67922.85829040945,3792.968169872171,71.25317532278132,22.23862088049612,0.493006071840975
70885.16361582521,67031.11851402927,3854.045101795937,72.63991296302993,22.293476659305643,0.49549383945470504
70066.60825743851,66151.65743286486,3914.950824573647,74.0256075358484,22.347665225545033,0.49797475336004177
69259.77567402463,65284.10890030493,3975.6667737196917,75.40512012544787,22.401179669708405,0.5004490251437769
68464.72917338897,64428.53601604626,4036.1931573427155,76.82602968008723,22.454005274118927,0.5029168879752001
67681.31586518217,63584.807529672966,4096.508335509214,78.26851051632548,22.506129739969005,0.5053776504709813
66909.51780677369,62752.93226367953,4156.585543094158,79.75123718922259,22.557545925908116,0.5078308457317526
66149.15253031072,61932.7329186197,4216.419611691015,81.26071140926797,22.60823960908106,0.5102765262215082
65400.13067378688,61124.12848467237,4276.002189114506,82.79085401335033,22.65821086608699,0.5127140620199487
64662.12713174661,60326.79196232838,4335.33516941823,84.3787493465934,22.707445446090095,0.5151422953662044
63935.21805421785,59540.80955262664,4394.408501591203,86.04334933456266,22.75594050575004,0.5175616986054127
63219.16213686468,58765.96202170919,4453.200115155492,87.81857116002357,22.80368545270057,0.5199719079399313
62513.793192606274,58002.086359354646,4511.706833251628,89.74120762088569,22.85066934946761,0.522372294811344
61818.97261153003,57249.044679370025,4569.927932160001,91.77223920891993,22.896887301645876,0.5247620759092442
61134.61794401566,56506.76701003098,4627.850933984689,93.91653201181907,22.94233047838452,0.5271415124321059
60460.56227611586,55775.090234443785,4685.47204167207,96.14093731250614,22.986984757209356,0.5295099241253464
59796.625685332954,55053.83659852358,4742.789086809377,98.44692931772443,23.030848020102447,0.5318673652048835
59142.77702113454,54342.97878831251,4799.798232822034,100.80117006896762,23.073900315579294,0.5342124532431077
58498.60236144137,53642.11537285936,4856.486988582008,103.23898448591353,23.116149949642548,0.5365450956200868
57864.20980414879,52951.35162616236,4912.8581779864335,105.72593976912322,23.157570910374417,0.5388640986580704
57239.32876107952,52270.43491360089,4968.893847478637,108.28917480556993,23.1981765671869,0.5411695959459025
56624.19381399696,51599.59236986964,5024.601444127316,110.89736862696009,23.237931228180724,0.5434602861646801
56018.395244518455,50938.444492462404,5079.950752056055,113.6111184565234,23.276849486700144,0.5457359104120124
55422.11885935584,50287.170201854235,5134.948657501604,116.41714203130687,23.31490056143806,0.5479947051899839
54835.02480516964,49645.443905559194,5189.580899610444,119.25972398952581,23.352117627274502,0.5502383716785134
54257.26619780028,49013.41833423021,5243.847863570067,122.21109204483218,23.38845264932261,0.5524636196432032
53688.355963036745,48390.611765863236,5297.744197173509,125.23779778997414,23.423953600253775,0.5546738407710987
53128.56371165147,47777.289166482464,5351.2745451690025,128.41486547951354,23.458559390359653,0.5568636131646857
52577.448138553504,47173.039683005714,5404.408455547792,131.63082761195255,23.492329935484733,0.5590372011569321
52035.10590624789,46577.93899552439,5457.1669107234975,135.02442385075847,23.525197616199556,0.5611889593611116
51501.17388392139,45991.63825488734,5509.535629034049,138.52532647468615,23.557228407147708,0.5633245542898578
50975.66186355644,45414.12619651833,5561.535667038109,142.21703668765258,23.588352079501114,0.5654379374023433
50458.53906119319,44845.41312666181,5613.125934531375,146.01319938659435,23.61862606512605,0.5675325676525302
49949.55119908194,44285.22322556065,5664.32797352129,149.98070964036742,23.64799181595462,0.5696033852517223
49448.64969082355,43733.53383904753,5715.115851776019,154.02770023583435,23.676505591766688,0.5716544573066779
48955.672896542215,43190.154707425034,5765.5181891171815,158.23410945711657,23.70412083606511,0.5736819032298808
48470.83119065037,42655.33429780218,5815.496892848193,162.5691874587792,23.730872179177084,0.5756880582884157
47993.565132735086,42128.49216318741,5865.072969547678,167.0536495267297,23.756728193189225,0.5776705558291649
47524.114732661736,41609.868345564755,5914.24638709698,171.6832972295233,23.781721977698655,0.5796304181433894
47062.13871057171,41099.135047175325,5963.0036633963855,176.40344537660712,23.8058301357783,0.5815664501216325
46607.74065773905,40596.39045282951,6011.350204909544,181.26850252592703,23.829096035651006,0.5834800007396114
46160.458260445004,40101.18649692186,6059.271763523148,186.23347350017866,23.85146542822469,0.5853666209588272
45720.5559660224,39613.76420378911,6106.79176223329,191.3421465192805,23.873009561659735,0.5872301634010348
45287.64228325351,39133.76266934119,6153.879613912324,196.50676618568832,23.893661728489533,0.5890640872131082
44861.82047924983,38661.26284247486,6200.557636774969,201.82775700074853,23.91349573646437,0.5908739665467141
44442.93490535277,38196.11112452751,6246.823780825257,207.1795788881136,23.932452648334184,0.5926539568644679
44030.98593582062,37738.33994495569,6292.645990864935,212.65554605406942,23.950593014488916,0.5944085535606386
43625.94744143357,37287.86435553794,6338.083085895629,218.07968018000247,23.96786071428466,0.596131585625919
43227.41348788041,36844.32494911987,6383.088538760536,223.61296569317346,23.984324086194118,0.5978291490820075
42835.359010263135,36407.65853764019,6427.700472622943,229.16217259992845,23.999929239816737,0.5994944851666514
42449.88549867234,35978.000537625245,6471.884961047096,234.85731315996964,24.01472394983199,0.6011317479354318
42070.71926666881,35555.052872003835,6515.666394664979,240.6071991644567,24.02869327835856,0.6027382287055412
41697.61664387352,35138.56994393257,6559.046699940952,246.5481667422573,24.041858445295468,0.6043141068359935
41330.73182245262,34728.707650993674,6602.024171458942,252.5947878306033,24.054223153357654,0.6058593266424889
40969.89434252407,34325.29658832578,6644.597754198297,258.84774864971405,24.06581913490641,0.6073744360855434
40615.08971799527,33928.331017626726,6686.758700368546,265.2315060387482,24.07662803134445,0.6088588845388941
40266.08279398953,33537.576770470136,6728.506023519393,271.75464403862134,24.08667855462696,0.610310989100911
39922.95466654665,33153.097316720174,6769.857349826478,278.3602606288041,24.09594732487406,0.6117304513109135
39585.49521142008,32774.72949443343,6810.765716986649,285.03666996379616,24.104475219995454,0.6131185294061233
39253.59034577868,32402.282765232496,6851.3075805461785,291.8259987598867,24.112235711450477,0.6144735063875818
38927.18821477284,32035.795913667956,6891.392301104882,298.6853689052514,24.119259237309127,0.6157945070813651
38606.26759017675,31675.145107037282,6931.122483139471,305.6777938020532,24.125529232498018,0.6170817096506409
38290.85607400727,31320.472097802787,6970.383976204487,312.7749767150963,24.131091976864816,0.6183363934265592
37980.88262551679,30971.568234069255,7009.314391447534,320.00888593605487,24.13593908298256,0.6195596496077869
37676.21191302044,30628.447912645162,7047.764000375271,327.3916206812719,24.140099112725125,0.6207484375738845
37376.59808464262,30290.69528666693,7085.902797975687,334.8868344138027,24.143565986763225,0.6219046498654476
37082.11260358825,29958.558661701823,7123.553941886428,342.4498017675942,24.14637583395286,0.6230261818231685
36792.66735475042,29631.762324355794,7160.905030394621,350.1010738987825,24.148511709107346,0.6241154109259837
36508.47751241905,29310.70610333214,7197.77140908691,357.87775856867665,24.150000322533906,0.6251686456685833
36229.089223567426,28994.746854393572,7234.3423691738535,365.7336608538171,24.150829241222848,0.6261908459266446
35954.6391778772,28684.212530947894,7270.426646929304,373.6900767428451,24.151049706316154,0.6271769583171735
35684.744952829904,28378.52520688172,7306.2197459481795,381.6518536368385,24.15062678422021,0.6281326732612745
35419.64448408641,28078.10467262852,7341.539811457892,389.7239604414208,24.14963040305931,0.6290525424374716
35158.88446738621,27782.337025836896,7376.547441549317,397.9235980923986,24.14800785589898,0.6299427584510723
34902.743627710624,27491.620894606825,7411.122733103799,406.19381178356707,24.145839664479972,0.6307982895493046
34650.9567862228,27205.579638278476,7445.37714794432,414.59302221855614,24.143053895398783,0.6316217220145824
34403.54669382213,26924.323383868617,7479.223309953511,423.0367226227536,24.139746215613485,0.6324102317674479
34160.36679912576,26647.633496704388,7512.733302421375,431.63360263517825,24.135862403798498,0.6331687920701254
33921.559628996816,26375.713142117795,7545.846486879019,440.2454487212817,24.131456627320166,0.6338928150190316
33687.06757527212,26108.43338428812,7578.634190984001,448.9083804000984,24.126498028459608,0.6345870827862347
33456.74008674975,25845.718344840818,7611.021741908934,457.5990427482757,24.121034011406152,0.6352456319413022
33230.278931416964,25587.187340741093,7643.091590675873,466.37529933277983,24.115030526958613,0.6358748364421719
33007.6958024372,25332.88419848922,7674.811603947979,475.18467420351226,24.108538358559986,0.636470060825105
32788.995940984365,25082.82666399123,7706.169276993133,484.10070866550086,24.101520929691695,0.637035579383259
32574.470010507153,24837.281078638327,7737.188931868828,493.11511002114275,24.094046784585487,0.6375680569293176
32363.57623844233,24595.71155742296,7767.8646810193695,502.26081468508346,24.08607889772618,0.6380724693482956
32156.514155214376,24358.31102260148,7798.2031326128945,511.43833904579515,24.077676341448342,0.6385434428712973
31953.029699004805,24124.848595700005,7828.181103304799,520.7040499679279,24.0688092481776,0.6389880271303462
31753.023091959047,23895.183949228467,7857.83914273058,530.0621545347385,24.05954022699767,0.639402179998089
31556.70225122705,23669.551280110893,7887.150971116157,539.5565161284758,24.049819891365452,0.6397898911323446
31363.852294202217,23447.676232419828,7916.17606178239,549.1942904408206,24.03972186263578,0.6401484900306796
31174.394112902562,23229.553773285297,7944.840339617263,558.9485507106874,24.02918357810727,0.6404788099346251
30988.193930035315,23014.943183572705,7973.250746462611,568.8777092453092,24.01828650851342,0.6407831413149973
30805.332487024894,22804.04108382503,8001.291403199866,578.8306638385402,24.006958860142227,0.6410582961183015
30625.59273188466,22596.4894459424,8029.103285942261,588.9718616947066,23.995298292976965,0.6413102434745311
