energy,prior,fidelity,mass,psnr,ssim_indices
102854.38051752398,102854.38051752398,0.0,0.0,16.478647618567525,0.18175356131065076
101656.44197008097,101655.95784859626,0.4841214847177129,-0.23063297752378276,16.55088142975927,0.183407762341685
100467.07929946513,100465.1499900292,1.92930943593368,-0.4613542668739683,16.623273022102158,0.1850761736454233
99286.39750813288,99282.07295502318,4.324553109712352,-0.701436625829956,16.695820896077713,0.18675913122236762
98114.55914886857,98106.90062854446,7.658520324109358,-0.9582608762939344,16.76852310023683,0.18845657292295848
96951.62189517173,96939.7024567321,11.919438439627342,-1.230873426364269,16.841375574202175,0.1901687209065255
95797.76582746416,95780.67053322264,17.09529424152355,-1.5177437915481278,16.914375283903183,0.19189537836668188
94653.08717366082,94629.91382879783,23.17334486299273,-1.8193596389101003,16.987518231474667,0.193636482310397
93517.67296371693,93487.53197301252,30.140990704414126,-2.1268525235936977,17.060801315289403,0.19539271825262494
92391.62425072092,92353.63927042416,37.98498029676705,-2.4343850974400993,17.134219495864834,0.19716389922647706
91274.97552059138,91228.28328221002,46.692238381358614,-2.7492341948018293,17.207770117155185,0.19895005146533404
90167.8579435436,90111.60908425463,56.24885928896577,-3.0563170294335578,17.28144701610339,0.2007509918468874
89070.32684093641,89003.68634511165,66.64049582475646,-3.3585169062862406,17.35524873181347,0.20256707950900918
87982.39350591286,87904.54003366236,77.85347225049598,-3.672989538812544,17.429169477074385,0.2043986967788708
86904.15949923433,86814.28537294228,89.87412629204583,-3.992691042898514,17.503207069566884,0.2062452617060798
85835.67161662671,85732.98457262607,102.68704400064186,-4.324438587464101,17.577354685761154,0.20810596766539913
84777.05116849576,84660.77325947267,116.27790902309417,-4.673344971932238,17.65160766750728,0.20998173629930225
83728.35654725038,83597.72619172985,130.6303555205331,-5.030532497163222,17.725965154744124,0.21187258191866595
82689.55753771172,82543.82710719647,145.73043051524573,-5.411968615459045,17.8004220170226,0.21377856762624892
81660.63799648244,81499.07533800263,161.56265847980978,-5.806742278698948,17.874976350995578,0.21569991197767827
80641.63164001273,80463.51937269891,178.11226731382035,-6.226394245379197,17.949623257834695,0.2176369280798495
79632.54558845515,79437.1811746177,195.36441383745125,-6.6609291174972896,18.024356542428443,0.21958947599621145
78633.357342509,78420.05319077658,213.304151732417,-7.091402288475365,18.099171984164578,0.22155761203525345
77644.1481175576,77412.23309698333,231.91502057427772,-7.513675787595275,18.174062273851835,0.22354032175277969
76664.82956087498,76413.64722666677,251.1823342082039,-7.918914190711803,18.24902792008355,0.22553822870815973
75695.46019195864,75424.36989399568,271.0902979629557,-8.312040192606219,18.324063037981514,0.22755073832144349
74736.01599829017,74444.3932914557,291.6227068344689,-8.719583882448205,18.3991656588635,0.22957906412949394
73786.5042561211,73473.74077658112,312.7634795399784,-9.136338667056407,18.474326144559768,0.23162323839475008
72846.78792888213,72512.28987954136,334.4980493407667,-9.571912104336661,18.549540260337068,0.23368308777550628
71916.91837562954,71560.1058669703,356.81250865922937,-10.011941179247515,18.624799338950123,0.23575735829898248
70996.8596977104,70617.16990448823,379.68979322217336,-10.451413789211074,18.700099220546374,0.23784710702290404
70086.72474875436,69683.61348796742,403.1112607869506,-10.900166196399368,18.77543469182385,0.23995206249792936
69186.4302914651,68759.36729963402,427.06299183109024,-11.386836873803986,18.85080129315924,0.242072161918514
68296.0267424958,67844.49934648476,451.5273960110389,-11.911102566678892,18.926192525069517,0.2442071521330821
67415.3432307048,66938.85428310704,476.4889475977718,-12.448596745314717,19.0016011965367,0.24635579115664943
66544.43135704125,66042.49655107831,501.93480596293836,-12.997615876898635,19.077023136484197,0.24851933034224252
65683.20603597774,65155.35597222233,527.8500637554117,-13.582450802517997,19.152454552224075,0.2506986264973498
64831.7868075215,64277.57011104284,554.2166964786585,-14.15898717703385,19.227889353685224,0.2528939915032371
63990.06606523247,63409.04839054507,581.0176746874032,-14.748944296574336,19.303319144096644,0.25510418665136597
63158.04818950276,62549.80774497449,608.2404445282725,-15.366836276632966,19.378732773863206,0.2573285458013355
62335.691952479356,61699.82433720755,635.8676152718031,-16.011353529276676,19.454134636677374,0.25956709884189366
61522.98829485161,60859.10629103171,663.882003819897,-16.68815890957194,19.529512464395935,0.26181961774245405
60719.82054979102,60027.55124714491,692.2693026461081,-17.38625577480707,19.604859507871573,0.26408643986849584
59926.15110787095,59205.13898573225,721.0121221387029,-18.08511657111376,19.680168461373206,0.26636747910990577
59141.861580001736,58391.76052449265,750.1010555090842,-18.784174195745436,19.755436664362772,0.26866357714991285
58367.00993846937,57587.49170992951,779.5182285398571,-19.487960734921216,19.830657766965,0.2709746533704941
57601.41493850883,56792.16422921658,809.2507092922565,-20.197424904239597,19.90582420899302,0.2733007481458371
56845.1354251694,56005.8515125761,839.2839125933052,-20.937969542472274,19.980931812595134,0.2756424328915344
56098.159889811825,55228.558685820724,869.6012039910969,-21.69393558044976,20.05596635350562,0.27799871464454606
55360.33395637896,54460.14589053241,900.1880658465544,-22.504763248150994,20.13092347634307,0.280369798828407
54631.50150876022,53700.46601889693,931.035489863294,-23.32044435597345,20.20579109206964,0.28275531621817546
53911.78940070621,52949.66178511923,962.1276155869829,-24.12593643827131,20.280564589386735,0.28515497677448437
53200.98833681505,52207.53993870961,993.448398105434,-24.892985844075156,20.35524338631025,0.28756909686090365
52499.13230519939,51474.145549433306,1024.9867557660812,-25.648151868474088,20.429812443937706,0.28999776578574016
51806.055507146084,50749.32631496339,1056.7291921826904,-26.400330040494737,20.50426601531056,0.2924425300311885
51121.73503151488,50033.068210452366,1088.6668210625119,-27.165673535353562,20.578589194100026,0.2949005365735545
50446.13162217384,49325.34880608261,1120.7828160912236,-27.921523104276275,20.652780380636415,0.2973734100066361
49779.31216282166,48626.24928899231,1153.0628738293533,-28.64572768488142,20.72682731623571,0.2998603364102148
49121.17427259883,47935.68223495975,1185.4920376390835,-29.322637567493075,20.800728884319035,0.302363203872491
48471.53597792942,47253.47140041684,1218.0645775125802,-29.95371820287255,20.874470231033214,0.3048807835957255
47830.30805467002,46579.544379126455,1250.763675543564,-30.558384543481225,20.948044298445872,0.30741325398965463
47197.4729139905,45913.89332806118,1283.579585929322,-31.161191477782268,21.02143590046297,0.3099587485503241
46572.9994318575,45256.5003183331,1316.499113524399,-31.729257985694858,21.094636757096524,0.31251810568707417
45956.70900478042,44607.19981373056,1349.5091910498618,-32.299429749837145,21.167639051737016,0.3150908320691381
45348.5740266786,43965.97351280754,1382.6005138710616,-32.88626909797313,21.24043804396775,0.31767753502431667
44748.48447541237,43332.71866977888,1415.7658056334915,-33.47833280334453,21.313019725202462,0.32027619511031336
44156.44328798822,42707.45686847162,1448.986419516601,-34.07557196894777,21.385379826511194,0.32288897860322
43572.25829012895,42090.002623611035,1482.2556665179138,-34.67293052058085,21.457511890256807,0.325515723682011
42996.03653058518,41480.470100131264,1515.566430453917,-35.244078112715215,21.52940563051279,0.32815711691474486
42427.52696577078,40878.61707314135,1548.9098926294344,-35.80050924819807,21.601049723436724,0.3308119384636868
41866.77134921154,40284.497908799945,1582.2734404115984,-36.36956050716981,21.672441601643555,0.3334815759272584
41313.58707917466,39697.94253215824,1615.644547016415,-36.94276927476312,21.74356313091063,0.3361649369574473
40768.01030464731,39118.99446773241,1649.0158369149024,-37.53802001715667,21.814408265088318,0.3388639520190912
40229.96118156904,38547.585234689854,1682.3759468791843,-38.159387616608,21.88496632920287,0.3415765477983925
39699.382754042,37983.66658839621,1715.7161656457888,-38.82001879890595,21.955225230634127,0.3443041651688607
39176.19552052479,37427.16702111869,1749.028499406098,-39.50075221172301,22.02517277291248,0.34704236054803483
38660.16271681794,36877.85547764437,1782.307239173572,-40.24674089895416,22.094804956064408,0.3497940438871186
38151.341501267656,36335.79992941955,1815.5415718481067,-41.006837660301244,22.16410687479523,0.3525565157269594
37649.50840551967,35800.783999651445,1848.7244058682284,-41.81846348460385,22.233074519638876,0.35533205683834385
37154.80298899916,35272.953890493605,1881.8490985055578,-42.67019280518434,22.30167662940495,0.35811998147192553
36667.03787850943,34752.136559996754,1914.9013185126726,-43.596132946477155,22.36990270472406,0.360919725696424
36186.369746748715,34238.49000573325,1947.8797410154639,-44.560343286022544,22.43773909947769,0.36373124192608675
35712.54158954692,33731.77595319059,1980.765636356332,-45.57119616804266,22.505177490853846,0.3665537027801531
35245.58419403496,33232.02158646369,2013.5626075712676,-46.59268678143417,22.572211655081972,0.36938719641544254
34785.253723969276,32739.004288351196,2046.2494356180825,-47.627983846949064,22.638828993492975,0.3722307416576638
34331.578835404085,32252.73359851533,2078.845236888754,-48.68482850684086,22.705022168570466,0.37508427460139143
33884.48867979191,31773.170487858537,2111.318191933375,-49.77445171754516,22.770774050761453,0.3779474126543921
33443.86577826506,31300.183795664856,2143.6819826002047,-50.88117692196829,22.836069831341995,0.38082073476868333
33009.743819851145,30833.8330332385,2175.9107866126446,-52.0264837998111,22.900885982315057,0.383700429058603
32581.955324293373,30373.947258284155,2208.0080660092162,-53.189424871467054,22.965224645897013,0.3865872012594916
32160.463331444716,29920.502096273358,2239.961235171357,-54.37470970564027,23.029069646949996,0.3894801026227777
31745.167564595235,29473.39727562417,2271.7702889710645,-55.55577625971637,23.092418752901658,0.39237862396754597
31335.878721952282,29032.443139088005,2303.4355828642774,-56.710850213232334,23.155252238352716,0.39528200110503064
30932.55765586331,28597.60494121876,2334.9527146445525,-57.82784762148367,23.217568011063065,0.3981903027405693
30535.217170074287,28168.901288128935,2366.3158819453542,-58.921483772603096,23.27935296416776,0.40110309878584055
30143.66247742255,27746.15054975127,2397.5119276712776,-60.00127162442368,23.340603265066267,0.40402076459372127
29757.99215776622,27329.446734093122,2428.545423673099,-61.0920979626826,23.40129809152654,0.4069406968602209
29378.099087271792,26918.705670146705,2459.393417125086,-62.21161889724317,23.46142319038103,0.40986368047767874
29003.938428044166,26513.884954848945,2490.0534731952193,-63.31634285020118,23.520980809319347,0.4127911568152632
28635.42207278835,26114.89505027516,2520.5270225131912,-64.44719158332737,23.57993864427039,0.4157196682456357
28272.448579599357,25721.646703611015,2550.801875988342,-65.56401888647815,23.63828783963981,0.418650583400459
27915.12627398935,25334.237737725034,2580.8885362643146,-66.68922414009285,23.69602171791434,0.4215829256216473
27563.20601681761,24952.442472309987,2610.763544507625,-67.74097230014013,23.753136483253474,0.4245205119785364
27216.88192671378,24576.43810571112,2640.443821002661,-68.76884039632569,23.80960980297114,0.42745794480062616
26875.800223788392,24205.89058105663,2669.909642731762,-69.70900797500508,23.86544409272572,0.430400189627761
26540.078283328956,23840.913439687196,2699.1648436417618,-70.62718328423216,23.9206066202796,0.43334032082844104
26209.4578485125,23481.2521830263,2728.205665486198,-71.45099844811921,23.975104919788585,0.4362834778623755
25884.11439851657,23127.082912236256,2757.0314862803143,-72.27439664414123,24.02890469827994,0.4392206728976867
25563.65361820094,22778.010372876597,2785.6432453243433,-73.03990829786198,24.082032330067676,0.4421575009508813
25248.43352221815,22434.406973893125,2814.0265483250264,-73.78494377632887,24.134447669729965,0.4450899935076318
24938.065290205966,22095.872418838273,2842.192871367692,-74.45007440142945,24.186179231948806,0.44802324193478515
24632.700292499074,21762.587850082302,2870.1124424167715,-75.10867283373227,24.237166520650835,0.45094855518305427
24331.968288910582,21434.14350569498,2897.8247832156,-75.71445136489638,24.287435304068158,0.45386821572204994
24036.06956783681,21110.77905635672,2925.2905114800888,-76.29598539369908,24.336942018122755,0.45678065022474573
23744.819511862646,20792.27128607007,2952.5482257925764,-76.7842602616438,24.385706256835835,0.45969019400980365
23458.290474742575,20478.744663962138,2979.5458107804384,-77.21084882298601,24.433687552632428,0.4625911210215851
23176.186856753506,20169.858914544253,3006.327942209252,-77.50110835833038,24.480904701587068,0.4654832779714533
22898.76704051142,19865.917577118827,3032.8494633925893,-77.76978088579199,24.527334641869917,0.468367108881643
22625.613945775644,19566.44286055104,3059.1710852246015,-77.93418332695,24.573002640740782,0.4712405549432948
22357.06444117453,19271.841758678307,3085.222682496222,-78.06246353577444,24.61785493363912,0.4741003807525614
22092.697099307083,18981.63861532791,3111.058483979174,-78.0974187318352,24.661939632969307,0.4769488988435606
21832.873076950476,18696.251494628235,3136.621582322243,-78.09728790297959,24.70518879204766,0.479781757091757
21577.144376536835,18415.17829473261,3161.966081804225,-77.9697090202535,24.7476517360756,0.4826011290267444
21325.775970578798,18138.749990140335,3187.0259804384623,-77.8065400331543,24.789266625276856,0.4854050806562549
21078.47619278568,17866.615697136833,3211.8604956488475,-77.56208886668173,24.830076313299024,0.48819151664483534
20835.449075801225,17599.038064055858,3236.411011745367,-77.2755884223443,24.87004049281875,0.4909587466192799
20596.450109112662,17335.71421161655,3260.735897496114,-76.9283777398814,24.90919212892789,0.4937108371141304
20361.635270574046,17076.86301984748,3284.7722507265676,-76.51187129436585,24.94749154130122,0.4964453648128286
20130.67039774381,16822.10400165178,3308.5663960920283,-75.95582777963136,24.98497362466845,0.49916458556645393
19903.692004582826,16571.59818005975,3332.0938245230764,-75.34594573265349,25.021611596153456,0.5018629568017623
19680.458532918325,16325.079304630763,3355.3792282875606,-74.679627479607,25.057434053228658,0.5045444358855332
19461.078336456005,16082.690998492944,3378.38733796306,-74.01621223469556,25.092404732451058,0.5072052160036814
19245.30271068321,15844.160959879398,3401.1417508038103,-73.24321497942583,25.126557673756476,0.5098512174797817
19033.23666857072,15609.587129513235,3423.6495390574855,-72.44668178088614,25.15987407064693,0.5124794052907896
18824.71635562443,15378.824723525107,3445.891632099323,-71.59443254755024,25.192359756940675,0.515085809825528
18619.67884105643,15151.790582103939,3467.8882589524924,-70.7183460780725,25.224005425992555,0.5176691560602992
18418.11115947528,14928.487080918178,3489.6240785571035,-69.79617005700857,25.25479855308149,0.5202312948843197
18219.90364427166,14708.790996509813,3511.1126477618463,-68.84616924681177,25.28474745922834,0.522767726387154
18025.189013196676,14492.838333659456,3532.350679537218,-67.85405700928823,25.31384302683353,0.5252801362526277
17833.96011003585,14280.627994464849,3553.332115571002,-66.81487745872437,25.342108132022112,0.5277636409957945
17646.008880934132,14071.942718345817,3574.0661625883154,-65.7000248420809,25.36954868289459,0.5302261355218715
17461.36039106694,13866.814597511098,3594.5457935558406,-64.49128355575522,25.396135912842432,0.5326574169114346
17279.95881664026,13665.186367985165,3614.7724486550965,-63.17297698442417,25.421904324607574,0.5350702901323877
17101.792703897325,13467.05516381679,3634.737540080533,-61.77378985322139,25.446813093095898,0.5374500470110274
16926.653807580748,13272.200486330188,3654.453321250559,-60.23810320557095,25.47091545044841,0.5398128162176264
16754.636505490293,13080.713181360381,3673.9233241299116,-58.66250830011268,25.494117929274584,0.5421343242515155
16585.590630772396,12892.449167934203,3693.141462838192,-56.94557081973471,25.516521740427777,0.5444356614024611
16419.550568669405,12707.408288894863,3712.142279774541,-55.254329149916884,25.538064895464526,0.5466961077448429
16256.286621142615,12525.40287037582,3730.8837507667963,-53.42872994997015,25.558838116256837,0.5489379031549327
16096.110800245471,12346.71004011989,3749.400760125581,-51.60804606982856,25.578754403933996,0.5511396931516569
15938.49041079815,12170.829958974988,3767.6604518231625,-49.613141843779886,25.59791550583393,0.5533269962944903
15783.777952874932,11998.07462515194,3785.7033277229934,-47.577568992142915,25.61621105931816,0.5554726175645248
15631.881580834757,11828.381843601466,3803.499737233292,-45.40738008547487,25.633759060844717,0.5576041628849168
15482.537164828082,11661.464827629952,3821.0723371981303,-43.12600806242699,25.65045086713722,0.5596935171965572
15336.047135868363,11497.641800267627,3838.405335600735,-40.69233096889366,25.66641337329388,0.5617717653852236
15191.955795066006,11336.422274173916,3855.5335208920906,-38.16118208596163,25.6815431645253,0.563807267436335
15050.966602547805,11178.581274901455,3872.385327646351,-35.50706898854696,25.695939254062008,0.5658300452602316
14912.22050364461,11023.15957284623,3889.06093079838,-32.764373250174685,25.709554521941683,0.5678139205665266
14776.30322441496,10870.853464818047,3905.4497595969137,-29.919307004682196,25.72243373329497,0.569777819429398
14642.608146380839,10720.934132834782,3921.674013546057,-26.91463736755395,25.734509674638907,0.571698580959984
14511.642485688673,10574.03059213822,3937.611893550453,-23.770159021943982,25.74588086864305,0.5735974600315434
14382.930781075267,10429.561419458667,3953.3693616166,-20.440854061438586,25.75643066680176,0.5754516192973694
14256.65892806981,10287.782069636749,3968.8768584330614,-16.94910700249602,25.7663098667064,0.5772900735860375
14132.805496626355,10148.619613625751,3984.185883000604,-13.36870692447701,25.775426571550035,0.579085858109137
14011.189014551677,10011.921835077635,3999.2671794740413,-9.67300207457447,25.783870062583375,0.5808580585207581
13891.900819536942,9877.758306356875,4014.1425131800675,-5.841591976910422,25.791570419250966,0.5825875320728634
13774.691714455877,9745.87041480487,4028.821299651008,-1.8446160864259582,25.798594171133963,0.5842910336148305
13659.69280349943,9616.414485924011,4043.2783175754203,2.275103964850132,25.80491593797264,0.5859550755682011
13546.758460303805,9489.206304830062,4057.552155473743,6.535835308342939,25.81054713262663,0.5875827869873703
13436.06047729926,9364.450708238966,4071.6097690602937,10.92928910235787,25.815512169255655,0.5891757416330438
13327.235921028941,9241.745864555045,4085.490056473897,15.479798033149564,25.819795727385397,0.5907296684556059
13220.477107340337,9121.336195122258,4099.140912218079,20.152107718116895,25.823463164583593,0.5922481291799243
13115.686065796428,9003.040359842842,4112.645705953587,24.989674401222146,25.826480678065256,0.5937321544024976
13012.771656400926,8886.860265437215,4125.911390963711,30.045172918529715,25.82887198574037,0.5951786253816684
12911.650005019228,8772.613824907061,4139.036180112167,35.23499154607998,25.830620790838758,0.5965896350249339
12812.535108573706,8660.605496485872,4151.9296120878325,40.57908469881659,25.83179277872297,0.5979685136158808
12715.241704061484,8550.583618789182,4164.658085272302,46.12587429992709,25.832326161685817,0.5993042716729663
12619.481503115068,8442.306768182665,4177.174734932404,51.838261753298866,25.83228027733165,0.6006043542163284
