energy,prior,fidelity,mass,psnr,ssim_indices
38093.565408880575,38093.565408880575,0.0,0.0,16.486767900836327,0.2369738518874044
34750.912826893575,34737.206008533976,13.706818359595053,-13.582625101000303,16.913975679677336,0.24819212204242944
31738.233118604592,31686.170804820973,52.062313783618684,-27.510345065995352,17.335291243099345,0.2596239916234873
29028.059333401354,28916.8648164732,111.1945169281531,-41.74593921171618,17.74987740409482,0.27123806267114253
26594.284721773827,26406.696768319372,187.5879534544549,-56.284693180408794,18.15691010033118,0.28300072305816354
24412.29214600323,24134.2240632038,278.06808279942817,-71.1204821827123,18.555594959179793,0.2948713935439439
22458.93573698307,22079.152286307974,379.7834506750964,-86.2672283705906,18.94517216393894,0.30681112921572945
20712.57307075309,20222.381726530642,490.19134422244747,-101.70052772131748,19.324922112691517,0.31878708464430766
19152.991486096136,18545.94914656303,607.0423395331071,-117.43258316026186,19.694182200866454,0.3307670012024533
17761.424324846885,17033.056767253234,728.3675575936506,-133.4652167512395,20.052346514031413,0.3427122689010144
16520.549835608577,15668.091291775883,852.4585438326957,-149.78316125486162,20.398883230032745,0.35459763505925923
15414.516939244817,14436.669511004615,977.8474282402015,-166.372913084866,20.73332712515239,0.3663847520091319
14428.879304858481,13325.593814254958,1103.2854906035234,-183.25046148031834,21.05527937166451,0.37803232303363726
13550.50957994802,12322.77883764112,1227.730742306899,-200.42378460403415,21.364422748577383,0.38951090196744165
12767.574867353589,11417.253868346235,1350.3209990073547,-217.86413914582226,21.66050790734939,0.4007978001181534
12069.390448714588,10599.028631625413,1470.361817089176,-235.5560987459612,21.943362055847913,0.41187644117186134
11446.377801772076,9859.06966742925,1587.308134342825,-253.50908181551495,22.212885852705288,0.42272371193255154
10889.990771185057,9189.247561746477,1700.7432094385804,-271.723680388357,22.469044575736174,0.433317228669771
10392.626475716103,8582.26154420039,1810.3649315157134,-290.19604695329326,22.711858624699254,0.4436472855829183
9947.540361053896,8031.5751118183725,1915.9652492355233,-308.91930534972926,22.941414023156554,0.45369726290525064
9548.761988183898,7531.3409573676545,2017.421030816243,-327.8968855102139,23.15785025005689,0.4634654316628153
9191.021578000677,7076.3473685740155,2114.6742094266615,-347.13287691478035,23.361357193552315,0.472939523720256
8869.660731687674,6661.936786709439,2207.723944978236,-366.6270407322445,23.55217199153518,0.4821169781909127
8580.575079933873,6283.961363484093,2296.6137164497795,-386.36798616926535,23.730575015814217,0.49098981086136523
8320.14276139146,5938.720212169508,2381.4225492219516,-406.3405067663989,23.896888056498877,0.49956014344058763
8085.169679026401,5622.910560096914,2462.2591189294876,-426.51836876320885,24.051462174881834,0.5078330714303925
7872.8410315252495,5333.588146950574,2539.2528845746756,-446.89233301446075,24.194676157777778,0.5158084113364064
7680.68038467756,5068.129701252301,2612.5506834252587,-467.44899137262837,24.326928949893905,0.5234916604150593
7506.509007888273,4824.201937453356,2682.307070434917,-488.16937017813325,24.44864204569519,0.5308894177595266
7348.407356082667,4599.726722415718,2748.68063366695,-509.0470806679805,24.560250056508846,0.5380033723338747
7204.681762087726,4392.85244122881,2811.829320858916,-530.0734863271064,24.662195873914264,0.5448405576363236
7073.835585079938,4201.921208747197,2871.9143763327415,-551.2414147805248,24.75492973815005,0.5514101262817892
6954.544456277562,4025.449630889897,2929.094825387665,-572.5411135944596,24.83889816961465,0.5577172758385331
6845.633009789662,3862.1066008487587,2983.526408940903,-593.9632762881229,24.914547811294135,0.5637686068170601
6746.064230204527,3710.704358812468,3035.3598713920587,-615.497957090527,24.982318348362664,0.5695704401496009
6654.91633270837,3570.178450464719,3084.7378822436503,-637.1330624567345,25.042643513610578,0.5751311395484654
6571.370412316732,3439.5728806944326,3131.7975316222996,-658.8611898698728,25.095948115091453,0.5804601301420306
6494.699970422656,3318.030802518022,3176.669167904635,-680.67778530746,25.14264537110715,0.5855699627062477
6424.25700620633,3204.7820744549026,3219.4749317514274,-702.576610234828,25.183135193054838,0.5904708581965594
6359.460243301917,3099.129073629443,3260.331169672474,-724.5490807101305,25.217805034306334,0.5951655775332313
6299.790981250229,3000.4429159117863,3299.3480653384427,-746.5841793004947,25.247029513076246,0.5996624046239523
6244.7854118871055,2908.1568405296803,3336.6285713574252,-768.672046478081,25.271167176596578,0.6039688661242275
6194.02675951622,2821.75730622765,3372.2694532885703,-790.8051273514575,25.29056072741197,0.6080903640355416
6147.139775544507,2740.7772655651142,3406.362509979393,-812.9742457352113,25.305536196432335,0.6120380282878322
6103.7881050362075,2664.79408924801,3438.9940157881974,-835.1706878388068,25.31640320720023,0.6158131422216166
6063.669667899724,2593.425238370801,3470.2444295289233,-857.3898841732298,25.32345540132016,0.6194244494739745
6026.511723805723,2526.322202064325,3500.189521741398,-879.6280799116357,25.326972230274094,0.6228792110404243
5992.068188858311,2463.1678228795163,3528.9003659787945,-901.8804467170557,25.32721837524023,0.6261821149388918
5960.116472379248,2403.6727847363663,3556.443687642882,-924.1421497756673,25.324442691177197,0.6293381017585967
5930.454836785164,2347.572292251317,3582.882544533847,-946.4067214989918,25.318880421215905,0.6323515635364274
5902.900406237866,2294.624404264604,3608.2760019732627,-968.6684325856913,25.310753572208448,0.6352274037251897
5877.286970285638,2244.607446294014,3632.6795239916237,-990.921084186848,25.300270325348638,0.6379694659455485
5853.463686471521,2197.3181656094603,3656.1455208620614,-1013.1584100624896,25.287625270776953,0.6405853911916318
5831.293114427626,2152.5698759185298,3678.723238509097,-1035.3756121214828,25.273001181804805,0.6430802375035453
5810.649936598278,2110.190921970254,3700.459014628024,-1057.5691535877704,25.256569337716442,0.6454582177058981
5791.420118070205,2070.023674442272,3721.396443627933,-1079.7357621928095,25.238489674520768,0.6477236570476599
5773.499834622558,2031.9233158379789,3741.5765187845795,-1101.8731129113585,25.218911250404584,0.649882443796931
5756.794106928439,1995.756313945517,3761.037792982922,-1123.9793813203578,25.197973144103067,0.6519378841564748
5741.216142527249,1961.3994875079225,3779.8166550193264,-1146.052294769237,25.175805066837405,0.6538953600262342
5726.686292583012,1928.73892155864,3797.9473710243724,-1168.088863689045,25.15252818105673,0.6557573146346235
5713.131525167731,1897.6693613219825,3815.462163845748,-1190.0848387600272,25.128254857513646,0.6575273413650788
5700.484890576484,1868.093421559019,3832.3914690174647,-1212.0372448991693,25.103089273375975,0.6592054574818421
5688.6845922469265,1839.9207747182957,3848.7638175286306,-1233.9444416701153,25.077128670683344,0.6607973709673701
5677.6735047111415,1813.0673848269425,3864.6061198841994,-1255.804063180869,25.05046331794905,0.6623069076877126
5667.399033479196,1787.4552457021764,3879.94378777702,-1277.6136544137262,25.023176801045473,0.6637389782615224
5657.812641448155,1763.011810115938,3894.8008313322166,-1299.371360256715,24.99534660863401,0.6650966144510023
5648.869470189022,1739.669515368096,3909.199954820926,-1321.0751986352261,24.967044660653244,0.6663821751363609
