energy,prior,fidelity,mass,psnr,ssim_indices
218972.6253581772,218972.6253581772,0.0,0.0,16.475113676582033,0.17582729609792938
216414.1717567835,216413.13763168748,1.0341250960203219,0.2392645344370976,16.547670659943027,0.17722967802620274
213874.1588197493,213870.03773564872,4.121084100594456,0.4780709905317053,16.620397428003873,0.17864693947419838
211352.95874918418,211343.72172276882,9.237026415345012,0.7265065259998664,16.693292103393006,0.18007909267408317
208850.85102207324,208834.4939346235,16.357087449748278,1.0040436701383442,16.766352184399594,0.18152639768554088
206368.16147659495,206342.7055936016,25.45588299336567,1.3044797040056437,16.839574501910825,0.18298913468221767
203905.07729114188,203868.57062465633,36.50666648554327,1.616515560890548,16.912955720240145,0.18446733677702612
201461.86684633055,201412.38405402921,49.48279230133505,1.9446067915996537,16.98649281708446,0.18596129912349446
199038.74446102904,198974.38859749833,64.35586353070137,2.28640663868282,17.06018179465535,0.18747131271489423
196635.7932201272,196554.69521287965,81.09800724755326,2.6359720459440723,17.13402062623311,0.18899768671593428
194253.15517125782,194153.47479476378,99.6803764940382,2.9988591520814225,17.208006331067836,0.19054022903440213
191890.96913933678,191770.89581269538,120.07332664141603,3.3697754486929625,17.28213692186233,0.19209970437754284
189549.34340625253,189407.0952834283,142.24812282423036,3.732471665367484,17.35640899967931,0.19367597834080882
187228.39470333108,187062.21996951354,166.1747338175387,4.084583999356255,17.43081961218698,0.19526952286478835
184928.307634715,184736.48553445598,191.8221002590035,4.452939160051756,17.505366382221297,0.19688036279106494
182649.18149752708,182430.0225321774,219.1589653496902,4.828751901281066,17.580046036829938,0.1985083199614837
180391.12891843476,180142.97736265557,248.1515557791922,5.198842525482178,17.654854454803743,0.20015431684385807
178154.18667376385,177875.41720565566,278.76946810819186,5.548833809560165,17.729787799569454,0.20181840924463332
175938.36145619993,175627.38002892723,310.98142727269305,5.8684535410720855,17.804843957416132,0.20350071629095637
173743.75554025022,173399.0008622585,344.754677991719,6.150197977665812,17.880018855981525,0.20520152175916015
171570.4217359656,171190.3657016076,380.0560343579928,6.410658826585859,17.95530908026072,0.2069207910997289
169418.407877477,169001.5565126359,416.85136484111166,6.647845477215014,18.03071067667362,0.20865892171547995
167287.5762370824,166832.46548385933,455.11075322305413,6.887628772645257,18.10621998617738,0.21041617369530843
165177.9589132055,164683.1577319871,494.80118121841025,7.105449608992785,18.18183189060982,0.21219249876263965
163089.61782535192,162553.72900866633,535.8888166855769,7.275555932195857,18.257544377777855,0.2139877571417018
161022.57098507273,160444.2329894261,578.3379956466399,7.392741512041539,18.33335305934569,0.21580245978214166
158976.7732436497,158354.65720673598,622.1160369137158,7.474328824784607,18.40925557719528,0.21763666255974293
156952.11448987797,156284.9225915493,667.1918983286917,7.522739561158232,18.485247849876203,0.21949076241977775
154948.67625592594,154235.14348949326,713.53276643268,7.516989908064716,18.561324415325654,0.22136511555223595
152966.57472512178,152205.47462738163,761.1000977401658,7.451727473875508,18.637482343684525,0.22325975505824971
151005.77283283067,150195.91529080961,809.8575420210426,7.336037202505395,18.71371702161423,0.225174525371175
149066.18916913652,148206.41671043434,859.7724587021768,7.166405512718484,18.790022108520784,0.22711007786009788
147147.7813980374,146236.96901024054,910.8123877968392,6.966204045456834,18.866394059607767,0.22906659893065237
145250.4691705464,144287.53003896817,962.9391315782216,6.704609673470259,18.94283102167178,0.23104464163247243
143374.25492994842,142358.13103638878,1016.1238935596525,6.39595787494909,19.01932666416767,0.23304386779162353
141519.01601929634,140448.68301619115,1070.3330031051926,6.046876736334525,19.09587901053471,0.23506477492459502
139684.56646672892,138559.0322737856,1125.5341929433373,5.658427872345783,19.17248404837595,0.2371077432625288
137870.875668656,136689.1814744416,1181.6941942144013,5.287087232107297,19.24913430095615,0.23917312951138733
136077.90233676703,134839.11896179707,1238.7833749699728,4.921319559565745,19.325824375720412,0.24126120393960357
134305.40114410684,133008.63732855913,1296.7638155477132,4.568518525338732,19.402548401399766,0.24337223356139118
132553.3993764005,131197.7904563184,1355.608920082111,4.202640976058319,19.47930010336062,0.24550615244456994
130821.89348432471,129406.61627350967,1415.2772108150377,3.852255079895258,19.556074919682253,0.24766289586869006
129110.8513948169,127635.11389496025,1475.737499856647,3.47236318688374,19.632869223043585,0.24984296068566733
127420.20101689531,125883.24572194346,1536.955294951853,3.0874631038168445,19.709675617537524,0.25204647897676336
125749.81380432847,124150.91497079117,1598.8988335372958,2.6610333983553573,19.786488674881866,0.2542741826400465
124099.58009243525,122438.04259265898,1661.537499776275,2.206428048782982,19.863302473570368,0.2565261287265315
122469.41425664957,120744.57746449682,1724.8367921527567,1.706936918431893,19.94011670890803,0.2588031984872974
120859.0035069492,119070.23627759714,1788.7672293520607,1.1460164726013318,20.016923404205254,0.26110503333237256
119268.16642766054,117414.8596749237,1853.3067527368419,0.4812978084664792,20.09371729057545,0.263431931798268
117696.8675054485,115778.44717035303,1918.42033509548,-0.2142759740818292,20.17049163736609,0.2657839870699894
116144.93536572074,114160.85228754109,1984.083078179656,-0.97800190129783,20.247243504212676,0.26816142481347377
114612.33646224065,112562.08059891396,2050.2558633266904,-1.8070139776682481,20.323961605195514,0.27056475503762595
113099.049236768,110982.13072647408,2116.918510293918,-2.7054233939852566,20.40064293966109,0.2729944252328764
111604.84913940805,109420.81967227126,2184.0294671367833,-3.644585576024838,20.477281466288872,0.2754504099545153
110129.6687414013,107878.09648491465,2251.5722564866437,-4.561216306989081,20.553875073873908,0.2779335827927369
108673.22164132501,106353.71629264292,2319.505348682101,-5.440350925549865,20.630413609201327,0.28044358243633166
107235.55122976394,104847.73112061495,2387.820109148986,-6.340731395059265,20.706888983268975,0.28298055409196027
105816.3697694008,103359.89678158524,2456.4729878155667,-7.273044018773362,20.783296329373428,0.285544580615605
104415.54535078496,101890.09185367155,2525.453497113408,-8.22912689356599,20.859630610034966,0.2881356206272693
103032.82032277052,100438.0989271257,2594.7213956448195,-9.170609575230628,20.935878313770644,0.29075420313773254
101668.0201629675,99003.75262661274,2664.2675363547614,-10.1010808799183,21.012034259514213,0.29340056389595187
100321.04803192748,97586.99281464532,2734.055217282159,-11.00091166421771,21.08809080177012,0.29607423813724926
98991.71304353782,96187.64755165533,2804.065491882487,-11.899706360301934,21.164042669434995,0.298775585236486
97680.0604914346,94805.79728573369,2874.2632057009187,-12.799885498126969,21.239880998730563,0.3015063456344828
96385.93074013057,93441.30746233948,2944.6232777910986,-13.692380489897914,21.315601086661864,0.30426629086994267
95109.09239154805,92093.97229281614,3015.1200987319185,-14.614952271687798,21.39119571876815,0.30705545052136407
93849.51750914163,90763.79000518324,3085.7275039583906,-15.504568044794723,21.466659162758095,0.3098736605546358
92606.98756960659,89450.56085448767,3156.4267151189088,-16.359958202927373,21.541979418709577,0.31272114174617854
91381.36422710393,88154.16531677266,3227.198910331268,-17.213809160515666,21.617144227593496,0.3155979524914814
90172.46024222484,86874.43595540011,3298.0242868247296,-18.068864179193042,21.692146967869263,0.3185041350675631
88979.99103563633,85611.11347989159,3368.877555744732,-18.939855203498155,21.766977953144618,0.32144038133430647
87803.99581374052,84364.25016359036,3439.74565015016,-19.7800728980219,21.84163030827569,0.324406813810258
86644.196093493,83133.59987468412,3510.5962188088797,-20.601709620212205,21.91609451191487,0.32740346186950897
85500.52366047679,81919.09542926797,3581.4282312088176,-21.39017024100758,21.990357479243514,0.3304300669673177
84372.94445957108,80720.76203799449,3652.1824215766023,-22.169209231156856,22.064415368423017,0.33348721873567283
83261.26733813474,79538.38456825308,3722.882769881659,-22.934830818790942,22.138253193262862,0.336573517281114
82165.36618774723,78371.90355003746,3793.4626377097748,-23.77031308063306,22.211866138480318,0.3396900576178013
81085.13628683893,77221.18997601561,3863.946310823321,-24.64599574136082,22.285239981432696,0.342836213822534
80020.25321294472,76085.96409315232,3934.289119792397,-25.588101404719055,22.3583756021517,0.34601390670621707
78970.63018924695,74966.13449898956,4004.4956902573967,-26.570996861322783,22.431253394537922,0.34922160972069927
77936.1669173819,73861.63663630643,4074.530281075462,-27.650515768909827,22.503871372611947,0.352460379060763
76916.59902596455,72772.21790091108,4144.381125053466,-28.737002569949254,22.576204866866874,0.3557286639800796
75912.08051700264,71698.03758229669,4214.042934705962,-29.863417325308546,22.648259208682994,0.3590283192303436
74922.11939727979,70638.65352347115,4283.465873808644,-31.0343583523063,22.72000689080906,0.3623569601389944
73946.74161858755,69594.08175652976,4352.6598620577815,-32.28478072700091,22.79145506548922,0.3657165501331243
72985.60449298278,68564.00710597381,4421.597387008966,-33.579366264282726,22.862579470434632,0.36910522961521613
72038.77241646383,67548.50446904523,4490.267947418606,-34.9077028199099,22.933383546189937,0.3725248702399339
71105.86749611807,66547.20128759895,4558.666208519117,-36.24664000258781,23.003842756562534,0.3759744630755372
70186.63231305315,65559.86411691079,4626.7681961423605,-37.634468521224335,23.073959446240117,0.37945511855490816
69281.0307797002,64586.44330157004,4694.587478130165,-39.036152668180875,23.143707455801575,0.38296431545184406
68388.91464297513,63626.83154562317,4762.083097351952,-40.558384388452396,23.21309055515469,0.38650404672699157
67510.1390437041,62680.873982310404,4829.265061393698,-42.054167974274606,23.28208525354803,0.3900718700787095
66644.67295928144,61748.57397581559,4896.098983465853,-43.6201183317462,23.35068949504916,0.3936695966625354
65792.31780813466,60829.7344579214,4962.583350213254,-45.183957079425454,23.418884324750483,0.39729668220971864
64952.93086899552,59924.22986300258,5028.701005992936,-46.83299041131977,23.486666170993526,0.4009547693699091
64126.339777454064,59031.89054720285,5094.449230251217,-48.48028014379088,23.55400438914069,0.40464053249541204
63312.35067087783,58152.527728765745,5159.822942112089,-50.14614412712399,23.620906606907674,0.4083575250740645
62510.79701149732,57285.99057703961,5224.806434457715,-51.78511058865115,23.68734666898643,0.4121022221061473
61721.53753291771,56432.147792854754,5289.3897400629585,-53.38575472764205,23.753331079189874,0.4158774291482185
60944.45076486343,55590.877228588746,5353.573536274688,-54.94510661147069,23.818831269199872,0.4196797437361001
60179.274690646365,54761.9325131475,5417.342177498869,-56.46857792220544,23.883845655103467,0.42351201186549553
59426.0371358152,53945.3551603298,5480.681975485402,-57.9817281315336,23.948337151289202,0.4273681115357106
58684.609617506954,53141.02869504093,5543.5809224660225,-59.46789537661243,24.012315577343834,0.43125144809201416
57954.95563896789,52348.90659249468,5606.049046473213,-60.906312192208134,24.07575282834488,0.4351573696175232
57236.98844658959,51568.95420582457,5668.03424076502,-62.29736434761435,24.138650360366118,0.4390899188157622
56530.397987951736,50800.81491254481,5729.583075406922,-63.64971347281244,24.200988380185745,0.44304551114152124
55835.063392445,50044.43063503849,5790.632757406514,-64.95472738030367,24.26275497352202,0.44702662125508136
55150.82127344618,49299.56495342126,5851.256320024921,-66.23719479166903,24.323929768113075,0.4510302459159228
54477.78358224399,48566.43606774239,5911.3475145015955,-67.48183556459844,24.384509523890955,0.4550580231242323
53815.59103202851,47844.591876588456,5970.999155440056,-68.77863618580159,24.44446751006092,0.45910477233979213
53163.98506606873,47133.88183466652,6030.103231402211,-70.02764414192643,24.50380299492163,0.4631740281054773
52522.95059317027,46434.184586850846,6088.7660063194235,-71.32545862777624,24.562487801229267,0.46726137869174195
51892.35944359598,45745.49406701301,6146.865376582973,-72.55339735350572,24.62052794613909,0.4713709924710325
51272.09517403089,45067.586246252875,6204.508927778012,-73.84190269792452,24.67790001507389,0.4754986802228405
50662.0456485367,44400.46408460197,6261.581563934733,-75.13385835383087,24.73460782661714,0.47964791774677545
50061.90627298301,43743.72021971884,6318.18605326417,-76.5542368897004,24.7906230870462,0.48381141601765637
49471.89045887769,43097.65727330592,6374.233185571773,-77.96511983021628,24.845947582669528,0.48799331107069915
48891.44294291585,42461.65421981544,6429.788723100402,-79.41604617855046,24.900553977346796,0.49218775443899004
48320.96466124864,41836.1839175677,6484.780743680935,-80.877879458596,24.954450173481497,0.4963984811044832
47759.9224144085,41220.641325816185,6539.281088592316,-82.42545872949995,25.00760235054445,0.5006178200935808
47208.60801674337,40615.4203981948,6593.187618548566,-84.01732864265796,25.060016988408876,0.5048518890279671
46666.3565966593,40019.720293561106,6646.636303098197,-85.66611773939803,25.11165920014335,0.5090925816262538
46133.44910327175,39433.98545946599,6699.463643805758,-87.26955729268957,25.16253758819445,0.5133470037816635
45609.51709365286,38857.69418098903,6751.822912663834,-88.85261705995072,25.212625649643737,0.5176090836767223
45094.63274619798,38291.05918137372,6803.5735648242635,-90.39935240964405,25.26193150408682,0.5218839234827628
44588.22381852438,37733.36389761226,6854.859920912119,-91.94945773517247,25.31042329202505,0.5261619442407254
44090.81176913027,37185.26774044757,6905.5440286827015,-93.51943278883118,25.358101052273145,0.5304484674460707
43601.68237014339,36645.94663379283,6955.735736350555,-95.16205009038094,25.404934058453495,0.534734332440638
43121.40561305038,36116.089279887565,7005.3163331628175,-96.9166573662078,25.45094382751538,0.5390265586983579
42649.302338466485,35594.89800722357,7054.404331242911,-98.78127843141556,25.49608557092956,0.5433164944619273
42185.770573970745,35082.90911331788,7102.861460652867,-100.7330582406139,25.540396064188506,0.5476100069297082
41730.196982326794,34579.363537995305,7150.83344433149,-102.77397697314154,25.58380620017132,0.5518978440890926
41282.935045403865,34084.74956569824,7198.1854797056185,-104.92314359417651,25.626359163003638,0.556185443789278
40843.304836215786,33598.257524857145,7245.047311358639,-107.19914379634429,25.667998752302307,0.5604645054625538
40411.939979147486,33120.62190985008,7291.3180692974065,-109.57903379073832,25.708751465909426,0.5647401178256884
39988.08152940881,32651.011848586386,7337.06968082242,-112.11300729203504,25.748594308752992,0.5690069465289672
39572.20018716903,32189.968121283175,7382.232065885859,-114.77418256667443,25.787523323116226,0.573266596976543
39163.282455979555,31736.41182807895,7426.870627900603,-117.63624836120289,25.825530941043056,0.5775154683602977
38762.304163163164,31291.34124855939,7470.962914603774,-120.60164574545342,25.862607954376493,0.5817530820715985
38368.26953859736,30853.77038032881,7514.499158268545,-123.74242737260647,25.898745046919647,0.5859765585367481
37981.80477349373,30424.315901584374,7557.488871909358,-127.00925507373177,25.933939048133983,0.5901850225869697
37602.01259943019,30002.078738488075,7599.933860942121,-130.48523388244212,25.968171664286878,0.5943761061237766
37229.66588715661,29587.832311603364,7641.833575553248,-134.11610567895696,26.00144265998228,0.5985490543120365
36864.12176030388,29180.918397145215,7683.203363158664,-137.91453244921286,26.033749902114756,0.6027027304532475
36505.454640385135,28781.43074021983,7724.023900165306,-141.86994246556424,26.0650932762425,0.6068363363078996
36153.42731756774,28389.100413610984,7764.326903956753,-145.96595437068027,26.0954714973118,0.6109506012416065
35808.207593434396,28004.13462670067,7804.072966733727,-150.24521442956757,26.12485392672045,0.615040553017415
35469.0312394514,27625.71984512388,7843.3113943275175,-154.57957191357855,26.153259104291465,0.6191087203990682
35136.77410521835,27254.795974350982,7881.9781308673655,-159.07303895894438,26.180668407708524,0.6231483162404063
34810.50411365265,26890.349209087668,7920.154904564984,-163.62332150142174,26.207107654042296,0.6271629470246133
34491.088731154625,26533.33294356171,7957.755787592912,-168.31813826144207,26.23255681573675,0.6311481921788269
34177.20178922481,26182.2887356843,7994.913053540512,-173.12163636903279,26.257030878572564,0.6351078696208997
33869.918667882564,25838.446131062206,8031.472536820358,-178.0631270336453,26.280522130012823,0.6390381654876781
33568.15603820985,25500.54095162973,8067.615086580115,-183.08762462448794,26.303033001996358,0.6429379687711009
33272.877647236346,25169.698467223367,8103.179180012979,-188.28917988447938,26.32456392074928,0.6468039721155914
32982.70031998853,24844.402021350907,8138.298298637624,-193.60127499431837,26.345115659943946,0.6506354775132203
32698.671627252428,24525.825927352438,8172.845699899992,-198.97308223426808,26.364687600689667,0.6544301648896463
32419.74699613128,24212.775085301146,8206.971910830136,-204.57195134146605,26.38327675218335,0.6581897648593649
32147.01008681309,23906.478674336584,8240.531412476505,-210.1721991872182,26.400896015979022,0.661909813374597
31879.28691103914,23605.606663131108,8273.68024790803,-215.96879014722072,26.41753607875811,0.6655942564762308
31617.303225797346,23311.016319855018,8306.286905942326,-221.7673929753946,26.43322227470497,0.669238936269128
31360.451876103558,23021.98276369966,8338.469112403898,-227.79774272209033,26.447921856041216,0.6728447614614751
31108.862724519924,22738.73264956265,8370.130074957271,-233.85133260069415,26.461697816855217,0.676410783464705
30862.13540926757,22460.763768236884,8401.371641030684,-240.07390341116115,26.474486428830865,0.6799351203063789
30620.70587392526,22188.60273125672,8432.103142668542,-246.31668594654184,26.486366150505155,0.6834194770495446
30384.055799031936,21921.629626325557,8462.42617270638,-252.79054685740266,26.497268151140805,0.6868598317165376
30152.555317602368,21660.305207022,8492.25011058037,-259.33635513240006,26.507273555324772,0.6902595026131847
29925.629350578027,21403.957751775637,8521.67159880239,-266.11766552366316,26.51632029789047,0.6936130247343709
29703.321370381127,21152.6956920385,8550.625678342629,-273.02374084771145,26.524478341977034,0.6969244169082996
29485.52273037923,20906.363183638026,8579.159546741204,-280.1521151906345,26.5316857831234,0.7001868043851753
29272.56582634741,20665.280304198826,8607.285522148584,-287.3515888857655,26.538003928004947,0.7034058179879451
29063.505922275675,20428.564469418696,8634.941452856978,-294.8198598015588,26.543381505950126,0.7065776210430682
28858.982594789137,20196.754823634063,8662.227771155072,-302.4336461747298,26.54788401333784,0.709706035957414
28658.256026820934,19969.16526607245,8689.090760748486,-310.3581303495448,26.55146089480977,0.7127860508122067
28462.030032542563,19746.450855733612,8715.579176808953,-318.4864877430955,26.554165410716614,0.7158170762485518
28269.603551572385,19527.920627211915,8741.68292436047,-326.8872597803129,26.555967852898867,0.7187983920919706
28081.468572362814,19314.065426348876,8767.40314601394,-335.47903956926893,26.556894378818537,0.7217294525120822
27897.182228392376,19104.398382594725,8792.78384579765,-344.2602555172052,26.556923993065254,0.7246075247154632
