energy,prior,fidelity,mass,psnr,ssim_indices
201247.27013201997,201247.27013201997,0.0,0.0,16.475175577958513,0.24186676940614152
198968.00615346138,198967.08204105168,0.9241124096907377,0.8434754132467788,16.54682532363196,0.24331758238692713
196705.39579583652,196701.71316665187,3.6826291846417,1.6849139375262894,16.61861717173082,0.24477668476535516
194459.72487867923,194451.4707767005,8.254101978732026,2.5143231557158288,16.69054831157551,0.24624433435105364
192231.30869311886,192216.69228897584,14.616404143023399,3.357956937281415,16.762615020937076,0.24772020775090733
190020.44401021925,189997.69764139142,22.74636882782592,4.223779801744968,16.834813337118387,0.2492043658468024
187827.37683892468,187794.7571599642,32.61967896047089,5.113325713988161,16.9071395500475,0.25069726589085994
185652.3783259985,185608.16618125158,44.21214474690737,6.032855829311302,16.979589981025757,0.2521991295589218
183495.66490184295,183438.1671263772,57.49777546574713,6.957487528939964,17.052162281472988,0.2537099732706771
181357.3615160645,181284.9103333276,72.45118273690223,7.88296883131261,17.12485210798651,0.2552293016201665
179237.55347886795,179148.50736448198,89.04611438597647,8.828612018900458,17.19765458629077,0.25675717129487563
177136.3695283051,177029.1131225043,107.2564058008134,9.783574307744857,17.270565771380774,0.25829392333721396
175053.74395933596,174926.68818871691,127.05577061905507,10.73267790969112,17.343580615585825,0.2598397018818744
172989.84519225225,172841.42651247187,148.41867978037894,11.691234937985428,17.41669410027533,0.26139417946678356
170944.69119774696,170773.37474824075,171.31644950619895,12.662267000443535,17.48990204547072,0.26295770013626424
168918.3893962734,168722.66631642776,195.72307984561644,13.638435081171338,17.563200100121833,0.26453035524479
166911.01369343474,166689.40610234396,221.60759109078253,14.628769778297283,17.63658231695957,0.2661122866963512
164922.7617130074,164673.81955147607,248.94216153134656,15.661117400944931,17.710045533774093,0.2677036794202812
162953.68079001282,162675.98425238652,277.6965376262924,16.743893563223537,17.78358463853515,0.26930454218493133
161003.67608193404,160695.83258839772,307.8434935363275,17.86713173019234,17.857195287068606,0.2709149935915584
159072.7388045828,158733.3843876975,339.3544168852847,19.0345398147183,17.930871807749988,0.27253544088769566
157160.94242081742,156788.74255358058,372.19986723684576,20.22927312387037,18.004609207118637,0.2741667873625014
155268.31488821676,154861.96521386137,406.3496743553741,21.42186689013033,18.078402648882722,0.2758086482013217
153394.8607900609,152953.0840654958,441.776724565117,22.605246627674205,18.152243939176532,0.27746091764600744
151540.58828008882,151062.13988672078,478.44839336805984,23.783116015343694,18.226130553552903,0.2791239671127669
149705.42358821284,149189.08726915406,516.3363190587932,24.96093561287853,18.30005570628008,0.28079783695763155
147889.31593802333,147333.90510694758,555.4108310757377,26.131062161381124,18.374015379763996,0.2824825485715216
146092.37100817467,145496.73016990544,595.6408382692186,27.310763625631807,18.448000807190326,0.2841780039107301
144314.55251526993,143677.55560204887,636.996913221066,28.530412233871175,18.522006775771136,0.2858845609119099
142555.86688128588,141876.41905028647,679.4478309994226,29.786178212089,18.5960277731973,0.2876023931183363
140816.32501911547,140093.36191311007,722.9631060053991,31.079440710833296,18.67005923768682,0.28933169362732786
139095.9299075944,138328.42081400374,767.509093590653,32.417662612948334,18.74409608821942,0.29107284298069563
137394.6088509127,136581.55003648033,813.0588144323573,33.81119684499572,18.8181344446966,0.29282568306283513
135712.23522287954,134852.65598259767,859.579240281862,35.23687232247903,18.892165073183524,0.29459079516283787
134048.7230149346,133141.6727350044,907.0502799301954,36.697478196176235,18.966179815878455,0.2963683853864263
132404.12161138197,131448.68937402454,955.4322373574347,38.217580252559856,19.040168738686482,0.2981585608476914
130778.33262525345,129773.63156250883,1004.7010627446176,39.79126568193897,19.11412783526484,0.2999613705874839
129171.1963900459,128116.37321801423,1054.8231720316762,41.40984766901238,19.188047501133884,0.30177636587176515
127582.52523440277,126476.74655389812,1105.778680504652,43.0566191127582,19.26192139464918,0.3036042709477857
126012.28446865307,124854.75182861881,1157.532640034263,44.73795791788143,19.335743033461934,0.30544560265106785
124460.43910033022,123250.38300264918,1210.056097681043,46.44432126902393,19.409504705188517,0.3073002171261375
122926.83726381334,121663.5129349938,1263.3243288195379,48.19500934603275,19.483197426300947,0.30916842175676895
121411.45487298848,120094.15041447479,1317.3044585136965,50.0050222404825,19.556816085496397,0.3110512717055474
119914.09528055886,118542.12544556952,1371.9698349893395,51.852009820053354,19.630351073119414,0.3129480184918034
118434.7043695908,117007.4087617782,1427.2956078126024,53.75633972429205,19.70379283959908,0.31485940675053264
116973.23782173733,115489.98855713324,1483.2492646040873,55.6696669938101,19.777135923838646,0.3167862402150797
115529.6483299919,113989.84230165376,1539.8060283381503,57.61528379324591,19.850371011250317,0.31872812583972737
114103.65807018038,112506.72332319096,1596.934746989414,59.613462652196176,19.923492535294244,0.32068576334043736
112695.24618445101,111040.62832336366,1654.6178610873424,61.690437782672234,19.99649026813967,0.32265921910368367
111304.25932698692,109591.44280537893,1712.8165216079922,63.7832928308344,20.069357285381926,0.3246490050287983
109930.64495176941,108159.12851677288,1771.5164349965364,65.91726599296089,20.14208151510454,0.32665531256374997
108574.35890476148,106743.68137475841,1830.6775300030768,68.1427627124358,20.214656154693188,0.328678222470395
107235.146313831,105344.86620575386,1890.2801080771503,70.44457460095873,20.28706980454379,0.33071760110784987
105912.98213817638,103962.68157320535,1950.300564971032,72.80653261017869,20.359315064759002,0.3327741628654709
104607.72232531488,102597.00726151952,2010.7150637953646,75.24744948442094,20.431379394907765,0.3348482500189691
103319.26276587558,101247.77392159194,2071.4888442836423,77.74083571558003,20.503256477105975,0.3369406441293445
102047.43788429706,99914.82428620363,2132.6135980934405,80.29716498649213,20.574933150590834,0.339051003411075
100792.20088672942,98598.151534966,2194.04935176341,82.90461776984739,20.646399690293705,0.3411793870278079
99553.35260462425,97297.57150707397,2255.781097550281,85.55886640952667,20.71764471309347,0.34332635780215975
98330.77585917513,96012.99650819245,2317.7793509826915,88.26503251417307,20.78865872237213,0.3454929879944612
97124.35037795293,94744.32616185187,2380.024216101047,91.00890886236448,20.85943197076038,0.34767913364939057
95933.86905333174,93491.36845619748,2442.5005971342553,93.80039423133712,20.929954689486884,0.34988438422016976
94759.27791807016,92254.09403619987,2505.1838818703022,96.6492578543257,21.000217889288653,0.3521091494451853
93600.4147427489,91032.36915319222,2568.045589556677,99.54563876282191,21.070207042211354,0.35435409941498514
92457.20385531617,89826.13823222546,2631.065623090698,102.49226299216389,21.1399078685163,0.3566189543702498
91329.4337099383,88635.21550659172,2694.2182033465815,105.55857241639751,21.20931488069578,0.35890447612905046
90216.96570451088,87459.47580461644,2757.489899894445,108.70733068938716,21.27841972755442,0.3612107394396487
89119.54196467919,86298.67323519697,2820.868729482209,111.95822019490879,21.34721167749926,0.36353796870418914
88037.09632293713,85152.7730672973,2884.3232556398275,115.28508283774136,21.4156757385459,0.36588642320572323
86969.40868479217,84021.56816598948,2947.840518802692,118.74543158165761,21.483805603491874,0.3682567877500298
85916.43576995551,82905.03804193884,3011.3977280166773,122.27997510289424,21.551580715108013,0.37064973910295446
84878.10514101331,81803.13451811795,3074.9706228953655,125.93796149612172,21.618999108894595,0.3730663594999482
83854.19870057741,80715.6505314799,3138.5481690975107,129.690152684052,21.68604928980216,0.3755053596706654
82844.5709138469,79642.4599054974,3202.111008349506,133.53425007252372,21.752717397988036,0.37796707146334757
81849.14121395678,78583.48693026727,3265.654283689508,137.4762655842933,21.81898999519543,0.3804527458199111
80867.65393197551,77538.51474765479,3329.139184320719,141.5039697950997,21.88485839994522,0.3829624801017814
79899.97141651281,76507.40391187956,3392.567504633254,145.57983615770354,21.95030958368651,0.38549704442439614
78946.07645423032,75490.16936862441,3455.907085605905,149.76184537500376,22.01533095351494,0.3880562836167132
78005.66460712884,74486.51249655928,3519.1521105695633,154.04147338369512,22.079915249803967,0.39064008788016147
77078.7725948886,73496.48977503704,3582.282819851562,158.44379043355002,22.144040161922725,0.39324867318353524
76165.14710005611,72519.86528770563,3645.281812350487,162.95781390261254,22.20770018059742,0.3958825943046091
75264.80012063691,71556.66791626769,3708.132204369218,167.57730041778996,22.270869482870733,0.3985412907144162
74377.42822833912,70606.61179254075,3770.816435798371,172.31635459393146,22.333547873881543,0.4012253843384474
73502.93844780514,69669.60790752067,3833.330540284468,177.20458886632696,22.395717556829062,0.40393571548505963
72641.1292308689,68745.47172423494,3895.657506633956,182.22199350301526,22.457375803258543,0.4066719760556426
71791.8719409124,67834.08187971199,3957.7900612004096,187.42759764185757,22.518504243948225,0.40943453002870617
70954.981815686,66935.2710438227,4019.7107718633106,192.77301018705475,22.579096145673894,0.4122237956849559
70130.41442728777,66049.00580538467,4081.408621903098,198.2902095678437,22.63913530403723,0.41503983732435934
69318.05218140286,65175.17734915366,4142.874832249204,203.93223771918565,22.69861528970486,0.41788256180250816
68517.93135210575,64313.84263232387,4204.088719781888,209.7585027012392,22.757518372638227,0.4207520856382356
67729.57777132269,63464.53908086271,4265.038690459976,215.6930987595406,22.81584314357792,0.42364887815653346
66952.9663352092,62627.23155006932,4325.734785139874,221.79676254786318,22.873569073841836,0.42657343312499557
66187.8890585947,61801.73659328102,4386.15246531367,228.05569835350616,22.930686551185147,0.42952535557092747
65434.324993171955,60988.03550521883,4446.289487953121,234.47810035571456,22.987179154169446,0.4325056499894555
64691.85478170095,60185.724559596034,4506.130222104921,241.10122888040496,23.043040425979346,0.4355140351427986
63960.645881465534,59394.97610801857,4565.669773446965,247.87001775039244,23.098253022700604,0.4385510221586393
63240.37242143826,58615.475506722425,4624.896914715832,254.82292840001173,23.152814478502307,0.44161605984729535
62530.96953573894,57847.15238800089,4683.817147738056,261.95757013367256,23.20670791533815,0.4447104482707722
61832.241668810144,57089.836225767394,4742.405443042748,269.3218800359755,23.259922603839307,0.44783195842778745
61144.21499811655,56343.53308000869,4800.681918107864,276.8617351138091,23.312436968336264,0.45098191272676824
60466.7682259183,55608.1717070593,4858.596518858997,284.58838471214403,23.36424369738704,0.4541578481525106
59799.785725344766,54883.6049692959,4916.180756048866,292.42173960380023,23.415333937832045,0.45736241749069056
59143.01927726956,54169.63625916539,4973.38301810417,300.40939147074823,23.465704823707327,0.4605929178318377
58496.50177631474,53466.26227639479,5030.239499919954,308.5243754530384,23.51533590117391,0.4638493109812744
57859.87131443752,52773.15401036056,5086.717304076961,316.7965906471363,23.564227490968264,0.4671315448642814
57233.39592854146,52090.584200845646,5142.811727695814,325.18277654703707,23.61236300999711,0.47044062946827037
56616.53340044564,51418.00504130985,5198.5283591357875,333.7259346289211,23.659736023489003,0.47377460891499984
56009.45936086062,50755.61054818688,5253.848812673743,342.3690578851383,23.706338434244493,0.47713475162700614
55411.780639048644,50103.00899701459,5308.77164203405,351.18835208241944,23.752155605223486,0.4805201543088727
54823.49725379112,49460.19819396319,5363.299059827932,360.10881822393276,23.797191506524257,0.4839326878080692
54244.51394986924,48827.09473123413,5417.419218635106,369.23478774534306,23.841427756119963,0.4873711598547565
53674.56522906119,48203.443255720056,5471.121973341133,378.4802146447473,23.884867784548586,0.49083466456714825
53113.66908940354,47589.247095164734,5524.421994238812,387.97566662475583,23.927499613735918,0.49432261704221814
52561.61646601977,46984.30506058953,5577.311405430233,397.5972473102447,23.969328805100734,0.497834811838233
52018.23856190477,46388.46305678791,5629.775505116861,407.4656991152733,24.010330245408266,0.5013683426432579
51483.59839457029,45801.77104094546,5681.827353624834,417.4844210118172,24.050511047810666,0.5049227923928561
50957.34793243346,45223.89188650572,5733.456045927742,427.7794258261565,24.089853658921733,0.5084993398046807
50439.63645508987,44654.966096862874,5784.670358227002,438.2485324385925,24.12835634249287,0.5120957449189963
49930.14661602125,44094.7005918497,5835.446024171548,449.02948989588185,24.16600318863648,0.515711672325548
49429.15758966477,43543.35591750636,5885.80167215841,459.95655552190146,24.202798747243122,0.5193454470944618
48935.97496129577,43000.27204239425,5935.702918901518,471.1527419871709,24.23872976490992,0.5229971442862698
48451.086761286075,42465.888789607096,5985.197971678983,482.5500193060143,24.27379460028,0.5266648901149046
47973.990627367035,41939.764198647346,6034.22642871969,494.2580185175466,24.307978894552175,0.5303483584956843
47505.023878553446,41422.187126169956,6082.836752383492,506.1323453321529,24.34129359930818,0.5340474532313167
47043.46189052384,40912.49534139609,6130.966549127746,518.2852504785697,24.373719080545758,0.5377611107215517
46589.91115367823,40411.224888968376,6178.68626470985,530.6088828402571,24.405262749773033,0.5414861517126015
46143.54944839263,39917.62672790333,6225.922720489301,543.1724467249296,24.43591387342748,0.5452212986719424
45704.77380755803,39432.02658959483,6272.747217963194,555.9397708000033,24.465684618203873,0.548966617872763
45272.86949329004,38953.79088068019,6319.078612609844,568.944113597594,24.494560758824655,0.5527214417949823
44848.27231269857,38483.254398913006,6365.017913785569,582.1753343582968,24.52255808080135,0.5564838364863873
44430.63744953515,38020.18606139684,6410.451388138311,595.6419356671686,24.54966580349208,0.5602530246526278
44020.01017095226,37564.53412467951,6455.476046272749,609.3369356333569,24.575893161614975,0.5640276320460901
43616.230890513485,37116.230372697224,6500.000517816261,623.2786066810659,24.60123609752815,0.5678075188451809
43219.296839587,36675.19016471948,6544.1066748675175,637.4780578086793,24.625703481967033,0.5715905241712899
42828.91385324558,36241.183636930495,6587.730216315088,651.9524547812471,24.649288556619375,0.5753784504519035
42445.15040542334,35814.21883958562,6630.931565837716,666.6694839575794,24.67199652530294,0.5791663215699993
42067.80816579619,35394.16297707988,6673.645188716302,681.730033773696,24.69382189901205,0.5829548955413268
41696.77929594109,34980.83625920975,6715.943036731343,697.0987186617276,24.714786759972327,0.5867425367311544
41332.00080258857,34574.221795430625,6757.779007157943,712.7874777163961,24.73488387145032,0.5905285186453382
40973.416794082776,34174.24907717775,6799.167716905025,728.6971250128117,24.754123129703768,0.5943091141542297
40620.803799798654,33780.692889381906,6840.11091041675,744.8936874439532,24.772513308957954,0.59808639994225
40274.27586261622,33393.669001084665,6880.60686153155,761.3911303687491,24.79005132778812,0.6018552812922802
39933.636455007174,33012.969494390236,6920.66696061694,778.1251155205537,24.806743433202026,0.6056182058520451
39598.96937729537,32638.70021474639,6960.26916254898,795.0778695020417,24.82258574412529,0.6093694849286551
39269.924000364226,32270.4740252314,6999.4499751328285,812.2962299551,24.837595963419194,0.6131135832729832
38946.572918342805,31908.403547216556,7038.169371126245,829.7280426486977,24.85175528992315,0.61684405031259
38628.61554144587,31552.121666482984,7076.493874962885,847.4372391816287,24.865122339263284,0.6205662815533978
38316.17412128168,31201.858387841527,7114.315733440149,865.3499123002985,24.877651444252034,0.6242735237350338
38008.96776466153,30857.17128249326,7151.796482168275,883.5399406029319,24.88940377437007,0.6279698770809746
37706.936920780456,30518.174959928067,7188.761960852393,901.951149552362,24.90032530105371,0.6316497896853055
37410.083409653605,30184.691262930843,7225.39214672276,920.6766170160263,24.910489524269984,0.635316225702112
37118.364856638625,29856.881992807874,7261.482863830751,939.6684275773005,24.91984168510815,0.6389615569252073
36831.71368969601,29534.443721628326,7297.269968067682,958.9661936655175,24.928447676750515,0.6425887247445123
36549.84499127695,29217.311126548477,7332.533864728474,978.5744239757769,24.93625063042797,0.6461912916534233
36272.91760096498,28905.434160747143,7367.483440217838,998.5040158249903,24.943322680400843,0.649773218669553
36000.83967140556,28598.894978024116,7401.944693381448,1018.7798233857902,24.949612679615385,0.6533282659032849
35733.537006820305,28297.45510161283,7436.081905207472,1039.4158848765655,24.95516475687648,0.6568577389116994
35470.75896974625,28001.006110558526,7469.752859187731,1060.4531186060049,24.959954182576528,0.6603580153323775
35212.587384141356,27709.534598113365,7503.052786027991,1081.904290682025,24.96401644832098,0.6638288382009899
34959.02144565001,27423.111691178332,7535.909754471679,1103.7667298618471,24.967341197207126,0.6672665196522499
34710.030975684014,27141.63197613549,7568.398999548522,1126.0852211583406,24.969945228698904,0.6706719952483985
34465.387685812064,26864.90592620887,7600.4817596031935,1148.837346886692,24.971830985173874,0.6740418004198485
34224.86542966616,26592.68762545597,7632.177804210195,1172.0803093833383,24.973012586349704,0.6773781099006451
33988.641860324875,26325.13576921596,7663.5060911089095,1195.7490068380139,24.973499932567883,0.680677261161979
33756.40856433554,26061.945139778676,7694.463424556866,1219.9821993545047,24.973301677348594,0.6839377759634754
33528.23819968249,25803.234772857755,7725.003426824739,1244.6411790794518,24.972404260768535,0.6871581317592965
33304.06650867186,25548.825699927573,7755.240808744285,1269.861676740722,24.97084458109012,0.6903368851542244
33084.170902418366,25299.15145495238,7785.019447465981,1295.5521264106792,24.96861941018736,0.6934724264270865
32867.82679366522,25053.319024718534,7814.507768946685,1321.776561359613,24.96577102639913,0.6965640047978673
32655.587084493072,24812.037938073277,7843.549146419795,1348.474342266447,24.962281861427456,0.6996130379289021
32446.98264139466,24574.64913868328,7872.333502711382,1375.5257337799121,24.95819666677475,0.7026155572945676
32242.317334649444,24341.67099460763,7900.646340041816,1403.051132487628,24.953502268139893,0.7055741264870677
32041.032438137914,24112.31325167657,7928.719186461344,1430.848185185867,24.948225410508797,0.7084856904054385
31843.74171197004,23887.428081674938,7956.313630295102,1459.0618435408978,24.94237810460552,0.7113526028206915
31649.704998151938,23666.013289742576,7983.691708409364,1487.4797105301695,24.935975571151285,0.7141716810332426
31459.509899065604,23448.909057986002,8010.600841079604,1516.3343247933662,24.929017719481497,0.7169440913322719
31272.100117565074,23234.78858802482,8037.311529540253,1545.472924305097,24.92152663844074,0.7196713040841081
31088.52268421972,23024.962395565624,8063.560288654094,1575.0949049300107,24.913516798070567,0.722350786576181
30907.547497133655,22817.94410474462,8089.603392389035,1605.0587649898662,24.90499688873384,0.7249849427232858
30730.57006215341,22615.327207836024,8115.2428543173855,1635.521061700012,24.895962979402775,0.7275697956140362
