energy,prior,fidelity,mass,psnr,ssim_indices
87079.30206086888,87079.30206086888,0.0,0.0,26.028102938373653,0.5085785816227214
84661.425295587,84660.43122889238,0.9940666946141234,-5.507092419255059,26.227308192194073,0.5172524104119189
82289.56404176602,82285.62636488523,3.9376768807843514,-11.178163536009379,26.42667462796121,0.5260834951837384
79965.94260869177,79957.17430194802,8.768306743740851,-17.08025439683115,26.62597648956556,0.5350656165077154
77692.3321147187,77676.91465793151,15.417456787179518,-23.239646205329336,26.824979559659447,0.5441906590318883
75470.38568296486,75446.57508359228,23.8105993725783,-29.678293901728466,27.02343584638287,0.5534511245988171
73301.1700353784,73267.30053629063,33.869499087776475,-36.34803344454849,27.221068923118207,0.5628374945783797
71185.87401298454,71140.36172590494,45.51228707960471,-43.22253405558877,27.41760774998649,0.5723388686947087
69124.80597553388,69066.15237376883,58.65360176505532,-50.29313542461023,27.61276110481074,0.581947555034276
67118.53538267901,67045.32694920136,73.20843347764529,-57.615529392904136,27.80620120088753,0.5916498356807615
65167.46628210682,65078.377893314006,89.0883887928174,-65.1783855780377,27.9976031106997,0.6014336441462081
63271.77927491738,63165.57701229699,106.20226262039172,-73.08792051114142,28.18663454872936,0.6112843766919395
61431.46918803424,61307.01139943243,124.4577886018195,-81.28970108967042,28.372947010856322,0.6211888345850162
59646.19465608153,59502.42438186669,143.77027421484087,-89.80207358696498,28.556177224393437,0.6311319310156246
57915.72574943317,57751.67862506516,164.04712436801546,-98.71146869496442,28.73592884923706,0.6410963397309267
56239.49191428012,56054.291592683214,185.20032159691218,-108.00966725271428,28.9118156970801,0.6510618482476441
54617.043165108014,54409.89839915911,207.14476594890286,-117.71341318625491,29.083447339162557,0.6610122296819464
53048.00116244501,52818.2093891656,229.79177327941667,-127.8183121868642,29.250434934070576,0.6709267367295042
51531.45647611519,51278.39700326096,253.05947285423522,-138.3088370867772,29.412371308763753,0.6807870741694387
50066.72908581308,49789.862637694205,276.86644811887504,-149.213810100744,29.56886226208845,0.6905743603379689
48653.19201061477,48352.05896714516,301.13304346961013,-160.53204273129813,29.719518651796015,0.7002689806856819
47289.49803193208,46963.716256000866,325.7817759312191,-172.20669658784755,29.863988152975928,0.7098524539772372
45975.00476612672,45624.258134981275,350.7466311454504,-184.29671646212228,30.00186859654879,0.7193044354386023
44708.37236633117,44332.418208757765,375.95415757340726,-196.94759027881082,30.132843957950723,0.7286048888620376
43488.70498193678,43087.35807040646,401.3469115303231,-210.19667250616476,30.256558436523488,0.7377365003694111
42314.89995694188,41888.03952931637,426.8604276255134,-224.05801387806423,30.372790563044934,0.7466835268556519
41185.70411159065,40733.26934903861,452.43476255203683,-238.60488300258294,30.48123609630983,0.7554272274884545
40099.93645884337,39621.908762523024,478.02769632034426,-253.86850820406107,30.581734517018088,0.7639521088917466
39056.89852638266,38553.32462892331,503.5738974593552,-269.8378093849751,30.674043903982326,0.7722415148066641
38055.40278687543,37526.36283943721,529.0399474382128,-286.6031293585547,30.758034777074084,0.7802806066251317
37094.44297904423,36540.06988676676,554.3730922774681,-304.13218030368444,30.833627015221783,0.7880553533301379
36172.58080229042,35593.03692645171,579.5438758387065,-322.4885906999116,30.900749868655826,0.7955528446823056
35288.85158211071,34684.351285238045,604.5002968726637,-341.607525770145,30.95940426737064,0.8027637533473463
34441.67213040496,33812.44506918464,629.2270612203135,-361.5746240359149,31.0095868591062,0.809678533877964
33630.192420446736,32976.506256666245,653.6861637804906,-382.35590843722457,31.051444214576094,0.8162931039455298
32853.08934185827,32175.23294197427,677.8563998840029,-404.0116887370823,31.08509972949781,0.8225997264429318
32109.467662426352,31407.752284087208,701.7153783391436,-426.63770149159245,31.110687699768214,0.8285927724404806
31397.815858958256,30672.561749808567,725.2541091496884,-450.170425075863,31.12842480531262,0.8342696145435763
30717.450818174297,29969.015563680758,748.4352544935404,-474.64224230346736,31.138576373759275,0.8396309796186071
30066.875584919966,29295.62141512237,771.2541697975977,-500.027659001993,31.14139419086065,0.8446758750355047
29445.382609718217,28651.685209328713,793.6974003895041,-526.3971265286673,31.13717842643063,0.8494062226257624
28851.35914686846,28035.593083643264,815.7660632251975,-553.7372899404145,31.126225778403956,0.8538244879643253
28283.721986734876,27446.283450689793,837.4385360450817,-582.1911338550854,31.10884878536912,0.8579337952574146
27741.21637255849,26882.467825935284,858.7485466232064,-611.7721865953645,31.085377468015217,0.861737062964045
27223.551166133115,26343.900499255073,879.6506668780405,-642.4677993307705,31.0561384705657,0.8652392101893129
26729.154616379867,25828.96421534109,900.1904010387765,-674.4453834865126,31.02141669440045,0.8684441638894059
26257.49058960698,25337.155154222226,920.3354353847525,-707.7229349194677,30.981492564529646,0.87135540011445
25807.032204699593,24866.927049438716,940.1051552608787,-742.3603016025154,30.93682542462494,0.8739878887879787
25377.503353523134,24418.015477515888,959.4878760072464,-778.4060804012115,30.887622727336623,0.8763427929377746
24967.353833903402,23988.846263241274,978.507570662128,-815.7216350524104,30.834295420320814,0.878433367923046
24576.126976668642,23578.98474225711,997.1422344115296,-854.3810986348544,30.777055549068407,0.8802667991928091
24202.777748900528,23187.31487937948,1015.4628695210475,-894.3632374576409,30.7163098032386,0.8818541221179735
23846.412405513915,22813.01534060156,1033.3970649123532,-935.5622401204892,30.652301011311916,0.8832082346757953
23505.933564638224,22454.86863948495,1051.0649251532727,-977.986513856682,30.58535852487845,0.8843357780119009
23181.232248665645,22112.861400099715,1068.370848565929,-1021.5197468269616,30.515595017429145,0.8852462490743017
22870.52889128456,21785.06777351495,1085.4611177696083,-1066.2066653564107,30.443360489679616,0.8859497558660342
22574.08805646137,21471.870710427916,1102.2173460334543,-1111.891946215881,30.36879631989023,0.8864566710663903
22289.802151622185,21171.025426020726,1118.7767256014613,-1158.565941453795,30.292217565976035,0.8867807326247291
22018.484530970483,20883.436441931975,1135.0480890385093,-1206.1726469747955,30.21377046098042,0.8869343121695906
21758.396970294103,20607.23740806106,1151.1595622330426,-1254.6823775324738,30.13370633041417,0.8869221828985947
21509.444149244224,20342.43010995282,1167.0140392914047,-1304.0212953395676,30.052191248824066,0.8867631217593624
21270.917369268882,20088.176320619677,1182.7410486492056,-1354.3364815098466,29.969363265760414,0.8864547006810141
21042.200689202517,19843.95863062664,1198.2420585758782,-1405.5849925146904,29.88540518102523,0.8860162123399095
20822.51173858729,19608.862996018208,1213.6487425690816,-1457.7306596365524,29.80041866426639,0.8854470784633369
