energy,prior,fidelity,mass,psnr,ssim_indices
98156.85459898571,98156.85459898571,0.0,0.0,16.474803873319996,0.2856076051403724
89698.56190921435,89663.83321171158,34.72869750277416,-7.602697512891609,16.897465568548625,0.2977358550626746
82064.12827448288,81932.13052882347,131.99774565940325,-15.299322804785334,17.313122075677967,0.3098753240186256
75185.3931898814,74903.27703318416,282.1161566972503,-23.067005069635343,17.720769781020593,0.32198049827670383
68997.60229569883,68521.323519437,476.27877626182635,-30.86959680489963,18.11941551636323,0.33400238333421933
63439.62091156156,62733.09346741196,706.527444149594,-38.70841703825863,18.508090694010587,0.3458943108919515
58453.92535442458,57488.214143412944,965.7112110116383,-46.58852672588546,18.88586264703366,0.35762028836200416
53986.59434971093,52739.14167639524,1247.4526733156988,-54.55075678927824,19.251853338751854,0.3691383702517923
49987.48047937481,48441.376081755705,1546.1043976191058,-62.614297503081616,19.6052545820074,0.38041529497346155
46410.172661926605,44553.46882904657,1856.7038328800315,-70.79622695996659,19.945337966441492,0.3914171689353519
43211.87290681325,41036.94485552373,2174.928051289517,-79.12627098476514,20.271473282930202,0.40211583469885065
40353.35757618834,37856.30900867777,2497.048567510571,-87.62819306569872,20.583129620200964,0.41248863313063383
37798.81863175901,34978.931378687135,2819.887253071874,-96.30401009478373,20.87988692199555,0.4225154172177182
35515.69426034481,32374.926852763296,3140.767407581519,-105.1446575690643,21.161447008085727,0.4321853827889319
33474.49807958365,30017.02297860962,3457.4751009740344,-114.12420564860804,21.42762477333914,0.4414882476442176
31648.657982890545,27880.44488327965,3768.2130996108926,-123.24084881617455,21.678360917512766,0.4504195589372663
30014.341714243343,25942.795113334378,4071.5466009089646,-132.50418192497455,21.913709314952776,0.4589783670447145
28550.254181648375,24183.89666814603,4366.357513502346,-141.94741997634992,22.13382808436647,0.4671664625654463
27237.371086462877,22585.555604333866,4651.815482129013,-151.59018671058584,22.33897198657121,0.4749859424883429
26058.76609945775,21131.426860952295,4927.339238505453,-161.39101650577504,22.529490143694364,0.4824453078677311
24999.432573867714,19806.877645835553,5192.554928032162,-171.34869107767008,22.705806564686895,0.4895497283492021
24046.075893588393,18598.817313406427,5447.258580181967,-181.45429924677592,22.86841767458578,0.49631187601816684
23186.931158235107,17495.537129160894,5691.394029074215,-191.70941894326825,23.017874871053717,0.502745925147297
22411.61216005271,16486.593090051236,5925.019070001475,-202.0878892284818,23.15476955495877,0.508865439649516
21710.926471326853,15562.641198112115,6148.2852732147385,-212.5772379472619,23.27972924752626,0.5146794773172565
21076.759264037926,14715.342695490735,6361.41656854719,-223.1756661439431,23.393397306196213,0.520200320864841
20501.934973010964,13937.244117261205,6564.690855749759,-233.8769489651313,23.496427971160898,0.5254394157025725
19980.111873166556,13221.678554821436,6758.433318345121,-244.66353912616614,23.589479301588483,0.5304101650768095
19505.686521014482,12562.684032071658,6943.002488942824,-255.53605215303833,23.673200033071574,0.535123669624586
19073.710601291503,11954.939586269793,7118.77101502171,-266.493456244003,23.748223515552425,0.5395939268098217
18679.807928161717,11393.686836346526,7286.12109181519,-277.53036430251086,23.81516277952578,0.5438312072005117
18320.10336893703,10874.667849507327,7445.435519429704,-288.64423294144217,23.874612454672185,0.5478493087579305
17991.153008550842,10394.057292015816,7597.095716535027,-299.8203343061614,23.92713863495761,0.5516576765551687
17689.89815847057,9948.420995444545,7741.477163026022,-311.0445499388152,23.973278787075248,0.5552661569469195
17413.62545009733,9534.679513615847,7878.945936481482,-322.3187084676465,24.01354112546268,0.5586847516479695
17159.920621593803,9150.064478958482,8009.856142635321,-333.63579512236174,24.048404225096967,0.561923500309142
16926.63261049397,8792.083555639452,8134.549054854516,-344.99244133924367,24.078317156095096,0.5649931391723735
16711.83932640875,8458.487577006075,8253.351749402675,-356.3888547164388,24.10369825283685,0.5679011096970635
16513.82270343368,8147.246166135091,8366.576537298592,-367.8211635753978,24.124936632490922,0.5706584405524234
16331.046611017544,7856.526403929649,8474.520207087895,-379.29050843481673,24.142393538175774,0.5732729672464428
16162.133959054046,7584.6691628441695,8577.464796209877,-390.797890038637,24.156403485372785,0.5757515655449269
16005.851576942907,7330.172918900622,8675.678658042285,-402.3469829391688,24.1672747878682,0.5781007914809103
15861.093377884685,7091.6799225595105,8769.413455325173,-413.93344043259276,24.175292851386146,0.5803268988662037
15726.862845804404,6867.956500686018,8858.906345118385,-425.5518408610951,24.180720195789203,0.5824362032679512
15602.262805560877,6657.88069860227,8944.382106958607,-437.1993962681736,24.183796459703906,0.5844348969271905
15486.484965673284,6460.432101472573,9026.05286420071,-448.8749497148092,24.184741428137038,0.5863279084265366
15378.799320381975,6274.680797344748,9104.118523037228,-460.575726268522,24.183755948566695,0.5881215373470813
15278.545855122657,6099.77873407552,9178.767121047136,-472.3007310233661,24.181024711885193,0.58982087640707
15185.127642064934,5934.951845098241,9250.175796966692,-484.0534359755693,24.176716200049285,0.59143009981577
15098.003193465682,5779.491519447569,9318.511674018113,-495.83678093599156,24.170984974639346,0.5929536043541866
15016.679866893288,5632.747684451277,9383.932182442011,-507.64891086157877,24.163972091125885,0.5943961531162354
14940.710167254012,5494.123699782263,9446.586467471749,-519.4896202809759,24.155805599022912,0.5957611556204419
14869.68768066031,5363.072176480984,9506.615504179326,-531.3604331510141,24.1466017646729,0.597051900550494
14803.242699269074,5239.090661654328,9564.152037614747,-543.2604840326239,24.13646702855843,0.598271968490646
14741.037148675974,5121.7164354200395,9619.320713255935,-555.1870233437512,24.125499255209494,0.5994247052683412
14682.761920197423,5010.52254592696,9672.239374270463,-567.1374427325791,24.11378770283795,0.6005133272863928
14628.134237750988,4905.114917196885,9723.019320554104,-579.1071302875062,24.10141344426374,0.6015411471302349
14576.895452973937,4805.129547279257,9771.76590569468,-591.0929355273838,24.088450078187368,0.6025110461468531
