energy,prior,fidelity,mass,psnr,ssim_indices
27529.29623686849,27529.29623686849,0.0,0.0,20.002776370280955,0.3565113109986793
27070.39855357873,27070.211380436904,0.18717314182441383,0.430703588805045,20.109503559326814,0.3603910401629112
26616.297722617168,26615.552988272902,0.7447343442641,0.8543850595997355,20.21655273781539,0.3643042085579605
26167.11659402552,26165.450162814326,1.6664312111923734,1.2862415103954845,20.323906449155086,0.36824909059758504
25722.95674536582,25720.010974075733,2.9457712900887403,1.723990257774858,20.431555715915074,0.3722257441408206
25283.959630590245,25279.38386824542,4.575762344825729,2.164282148987695,20.539480246308777,0.37623190967059655
24850.24923033989,24843.7001567483,6.549073591593382,2.613637386384653,20.647662724783217,0.3802683919761602
24421.89712150506,24413.03900832312,8.858113181938851,3.068445284432528,20.75608697409389,0.38433204135798754
23998.99762952503,23987.502359934708,11.495269590324483,3.531346541200037,20.86473913061591,0.3884240446676692
23581.593503628177,23567.14092728308,14.452576345098262,3.994421495572169,20.973602205644937,0.3925445253022081
23169.685813166365,23151.963961628066,17.721851538300534,4.451976865031611,21.082660782396587,0.39669331354617005
22763.355552747442,22742.06021151287,21.295341234570714,4.911399785443791,21.191897239025906,0.400870752062126
22362.663392550738,22337.49939501501,25.16399753572839,5.382570343928819,21.301284389749817,0.40507546555773194
21967.633149577217,21938.31390031671,29.319249260507082,5.861389517176576,21.410799823136188,0.4093075206233486
21578.329618809687,21544.577902292553,33.75171651713255,6.365632938613999,21.520422557737994,0.4135682051559139
21194.71830609237,21156.26461254643,38.45369354593849,6.906518062263785,21.630132198569495,0.41785626308055485
20816.809830226215,20773.394193836684,43.41563638953262,7.4702023823265336,21.739907371975118,0.42217047768228505
20444.53295272284,20395.90266741487,48.63028530796721,8.048046288859041,21.849714549198815,0.42650880994817725
20077.948680072,20023.86011918109,54.08856089091173,8.632873356546042,21.959526191919654,0.4308699478943075
19717.052047475965,19657.27085561913,59.78119185683591,9.233190068585827,22.069319904636497,0.4352533331637389
19361.86083367885,19296.162471957006,65.69836172184154,9.851295785589173,22.17907695126759,0.4396575777398705
19012.358517920184,18940.528343640053,71.83017428012872,10.498155341701931,22.288760283344388,0.44408124274620037
18668.541442252972,18590.372527707917,78.16891454505573,11.157780982208351,22.39834277773996,0.44852285613124926
18330.373289389485,18245.669064928294,84.70422446118961,11.85072323292843,22.50779047282746,0.452979521779395
17997.83318953833,17906.4044885268,91.4287010115288,12.57935312729387,22.61709755083107,0.45745475305820027
17670.931042925586,17572.600468696335,98.33057422924884,13.347983833449689,22.726217485988975,0.4619481539633799
17349.69442034991,17244.292662545402,105.4017578045092,14.14873931375405,22.835127021276385,0.4664584933246731
17033.9966642539,16921.36402460923,112.63263964467023,14.962210865614907,22.943779877262976,0.4709829492230431
16723.841019455384,16603.824022344634,120.01699711074912,15.763248892882984,23.052137834621533,0.4755202796489046
16419.07386331984,16291.529044595436,127.54481872440628,16.578898839637986,23.160160233693972,0.480069299021393
16119.686206491153,15984.47568746996,135.21051902119407,17.398894492023828,23.267819592001832,0.48463015685494654
15825.675108094147,15682.669365227213,143.00574286693276,18.228116197362397,23.37505875933074,0.4891987146006282
15536.975557074933,15386.054933862477,150.9206232124563,19.053280838383216,23.48184488195532,0.4937747421447747
15253.629904893538,15094.681034000114,158.94887089342353,19.880214059990976,23.588129837855703,0.49835892672605375
14975.591872862991,14808.512847989108,167.07902487388353,20.695446452707984,23.693889209104952,0.5029481304276159
14702.764038339621,14527.46112545838,175.30291288124155,21.527590413337748,23.79908763176538,0.5075394389517474
14435.143945958898,14251.524842896995,183.61910306190316,22.350462489161146,23.903693741089924,0.5121313963114595
14172.669039256758,13980.657369579178,192.01166967758056,23.18883370673211,24.007650873176594,0.5167277069816855
13915.294078876146,13714.814880298034,200.47919857811266,24.04845731365276,24.110928926906503,0.5213277708566336
13662.883045580373,13453.873695842318,209.0093497380545,24.943929887431295,24.2134552870913,0.5259227375355139
13415.348435834796,13197.744763368584,217.60367246621252,25.872384464757488,24.315163591599852,0.530514182570632
13172.745863196174,12946.495796315477,226.25006688069783,26.821794466242864,24.41599179303745,0.5350985997624127
12934.918838776724,12699.976504486775,234.9423342899497,27.765767421456985,24.51591099693131,0.5396788186129794
12701.85951714461,12458.18606869532,243.67344844928996,28.734849416337966,24.614882437601594,0.544251767931071
12473.510709033571,12221.07369812863,252.43701090494156,29.699139648149867,24.712859823654185,0.5488167840546699
12249.806923961232,11988.581708372687,261.22521558854567,30.678055044903886,24.809769290909273,0.5533713612837033
12030.631363502302,11760.59815422718,270.03320927512203,31.646292606168572,24.905566336342183,0.5579143997225186
11815.974360878732,11537.118298929843,278.85606194888885,32.60760900868627,25.000184286332072,0.5624440532915113
11605.722556621404,11318.036398536397,287.6861580850068,33.54297483978371,25.09358044311472,0.5669616849636592
11399.852815508904,11103.327631413584,296.52518409532024,34.46038632714408,25.185677315916944,0.5714588567991259
11198.363019768942,10893.006344341531,305.35667542741083,35.33842999437911,25.276421341071664,0.5759388029185605
11001.204173168859,10687.021502583659,314.1826705851991,36.169112744035374,25.365728533196705,0.5803897237857428
10808.286225944728,10485.295539554849,322.9906863898799,36.99579800205538,25.453555107828187,0.584812723560681
10619.447331511747,10287.660468651347,331.78686286039994,37.81300320985247,25.539804354890823,0.5892032819006151
10434.791325264134,10094.232331647356,340.55899361677814,38.5996207219323,25.624473252342,0.5935687679014102
10254.195995675836,9904.892480501881,349.30351517395434,39.39848562708721,25.707475869931528,0.5978984213908505
10077.716298536874,9719.701379518354,358.01491901852074,40.21367002246552,25.78879965268179,0.6021917790264767
9905.215372774446,9538.52916494811,366.68620782633633,41.054370912628656,25.868388328567846,0.6064510626347005
9736.667563656778,9361.34660217082,375.32096148595963,41.8999834781971,25.94620132120031,0.6106714643730702
9571.95496334178,9188.046764227192,383.90819911458755,42.74991445359774,26.022158049971836,0.6148491111236742
9411.062817752982,9018.61354176939,392.4492759835915,43.614645671892504,26.096235283099723,0.6189906578143235
9253.854811820154,8852.919467644591,400.9353441755629,44.48503705660187,26.16836036718484,0.6230857115417926
9100.31596450941,8690.944592477417,409.3713720319925,45.378024615474715,26.23849874174306,0.627130736905232
8950.381941181118,8532.638830245456,417.74311093566257,46.25523942086511,26.306575039078382,0.6311237026815107
8803.977920757883,8377.917610971866,426.06030978601717,47.14401116161389,26.37257832088799,0.6350652572077315
8661.04886464915,8226.74209450403,434.3067701451192,48.03564893600924,26.43643679891706,0.6389502127186294
8521.67615523752,8079.185404967736,442.49075026978363,48.96365842369414,26.498115737336335,0.6427762317654516
8385.543513064464,7934.945434883345,450.5980781811189,49.89967085389799,26.557578236934276,0.6465447994124913
8252.678534951478,7794.031971275226,458.64656367625116,50.820898245721764,26.6147809995388,0.6502606489564422
8122.902538394366,7656.2851676006685,466.6173707936978,51.76458956564238,26.66973416411846,0.6539201418562425
7996.1861021133345,7521.660554921904,474.52554719143086,52.71211920210408,26.722334006461956,0.6575188294831927
7872.431414369249,7390.076751099902,482.3546632693468,53.70267630120361,26.772628911923306,0.6610560214734341
7751.5746744688895,7261.450751102527,490.12392336636236,54.6995162775529,26.820505528844528,0.6645275896005755
7633.634012173195,7135.820427809132,497.813584364063,55.747323807285284,26.866007863725308,0.6679240151836973
7518.578223376307,7013.149993960011,505.428229416296,56.776701203929406,26.909019393516054,0.6712458143019555
7406.471802320403,6893.502306102404,512.9694962179994,57.84339328119313,26.94960644500806,0.6744953014018433
7297.178597140259,6776.74911549066,520.4294816495983,58.92393329292463,26.98771208035221,0.6776657409867207
7190.543547264985,6662.735337460927,527.8082098040575,60.03741029624871,27.023454189319622,0.6807580280428048
7086.603577864231,6551.49048627271,535.1130915915209,61.12635076951483,27.05674442796422,0.6837703423733301
6985.235379115027,6442.907654864263,542.3277242507643,62.24428926278415,27.087599143320567,0.6866964304518158
6886.472034143414,6337.003741129109,549.4682930143057,63.38161405205028,27.115998006762748,0.6895389733569436
6790.09445153653,6233.574507058307,556.5199444782232,64.57634535926627,27.141965688351625,0.6922975353522508
6696.116669277226,6132.61598087071,563.5006884065158,65.81097416810007,27.165502743444595,0.6949665019858267
6604.471956626265,6034.075870306458,570.3960863198071,67.12156156027413,27.186594387582833,0.6975449217920531
6515.198545713055,5937.9810324767395,577.2175132363151,68.45701825238939,27.205224986528833,0.7000241578506023
6428.123945365229,5844.180264716272,583.943680648957,69.86159946434782,27.221461356324205,0.7024132909822995
6343.2623073099685,5752.654321881995,590.6079854279734,71.28244621416889,27.235365803682022,0.7047152275554658
6260.537851348336,5663.370419787571,597.1674315607638,72.774733570026,27.246931089966925,0.7069249598328066
6179.87005944113,5576.19710914512,603.6729502960105,74.3182807555786,27.256205652925516,0.7090526266699632
6101.336314691153,5491.265120312503,610.0711943786498,75.94382305213367,27.26319646793776,0.7110883386323429
6024.733443844234,5408.3171451537055,616.416298690529,77.63741175273753,27.267984909965,0.7130339550042363
5950.165660988532,5327.5145038757255,622.6511571128069,79.38892970503366,27.27057485623191,0.7148759484216963
5877.417766116294,5248.586027479281,628.8317386370127,81.20531983662295,27.271044347907704,0.7166243832726872
5806.709531566974,5171.799394316022,634.9101372509523,83.05472936778824,27.2694054965404,0.7182734586912307
5737.705841254846,5096.769425558181,640.9364156966648,84.93892011351636,27.26579725573235,0.7198450456831357
5670.617132872295,5023.761471136481,646.8556617358138,86.88875906458998,27.260180704134342,0.7213202704383722
5605.171960502736,4952.455548497977,652.7164120047585,88.93047898665827,27.252657579730453,0.722719422469908
5541.605839529997,4883.128739207757,658.4771003222402,91.0446879996307,27.24319480503771,0.7240245147974992
5479.787661769296,4815.604635354161,664.1830264151354,93.25546888892859,27.231943432333907,0.7252541447941677
5419.562063765228,4749.768441769191,669.7936219960378,95.58139881159514,27.21882631537877,0.7263934108643958
5360.938355956265,4685.589484400053,675.3488715562117,98.0269149375672,27.204035771852325,0.727458748682395
5303.846840611557,4623.029814180763,680.8170264307938,100.59318964630438,27.187494304358673,0.7284300563701783
5248.266555906456,4562.032705136583,686.2338507698729,103.27025241592128,27.169369479615284,0.7293214056255194
5194.263079876703,4502.718683434071,691.5443964426323,106.0843153484384,27.149550518705507,0.7301185577718813
5141.67643078103,4444.857385248884,696.8190455321457,109.03810804116802,27.12824465670281,0.7308332321611276
5090.516241240534,4388.526438184463,701.9898030560715,112.15119140674506,27.10538098832601,0.7314574423669254
5040.731806384887,4333.596532301363,707.1352740835239,115.4237698228826,27.08112267161383,0.7320117441467037
4992.300453367669,4280.117747135822,712.1827062318469,118.88066386374703,27.0554447675434,0.7324828489419394
4945.118424073199,4227.922673018311,717.195751054888,122.47747266074657,27.02848923188514,0.7328802374240198
4899.206853585006,4177.094682910693,722.1121706743127,126.21325298645752,27.000208016677057,0.7331876438368355
4854.458420821693,4127.463473593768,726.9949472279253,130.1072096770331,26.970781174220257,0.7334257762202876
4810.943040626484,4079.146185382273,731.7968552442107,134.20090565965074,26.94008783299323,0.7335709338870869
4768.579027759054,4032.0285593448543,736.5504684141995,138.42723459146873,26.908326406934172,0.7336465065143837
4727.474479251633,3986.238677480159,741.2358017714741,142.82476419787417,26.87542947882705,0.7336370110163007
4687.3360081982455,3941.464140415837,745.8718677824089,147.33929478955906,26.841614060623975,0.7335673257050396
4648.303777422325,3897.859951685282,750.4438257370432,152.03781370519573,26.806746817924928,0.7334111651511513
4610.279629482446,3855.310819826354,754.9688096560915,156.87036955853546,26.77102849129628,0.7331916580219889
4573.248353942658,3813.82520975496,759.423144187698,161.88492094432877,26.734407977927845,0.7328997778542451
4537.196636303547,3773.345807375011,763.8508289285356,167.1007580501573,26.697025404146217,0.7325480170301203
4502.015416745685,3733.8141701505365,768.2012465951486,172.48434409681795,26.65885714103638,0.7321283559215606
4467.788858410431,3695.2460237412934,772.5428346691375,178.10544297456363,26.61993537863033,0.7316460119668764
4434.3457533797155,3657.5413098648305,776.8044435148848,183.91198905251804,26.58035799493311,0.7311052182899554
4401.845282479426,3620.7831735362083,781.0621089432177,189.9537241922808,26.540119449544562,0.7305094471026027
4370.118305187226,3584.8647441767025,785.2535610105232,196.21908998538493,26.49928270710586,0.7298482000559917
4339.175566735964,3549.745700964679,789.4298657712849,202.70797628581204,26.45786392335208,0.729137815554433
4308.958837042816,3515.402253477669,793.556583565147,209.4219065021025,26.41590906717142,0.7283647237452766
4279.377523010355,3481.6960663142663,797.681456696088,216.339305295729,26.37345066255468,0.7275388625832515
