energy,prior,fidelity,mass,psnr,ssim_indices
74699.62594014952,74699.62594014952,0.0,0.0,16.47700187110353,0.14399380083231253
73809.36861505824,73809.00922551316,0.35938954508003673,-0.33712951462803176,16.550175704952803,0.1455793557280386
72925.54592767986,72924.11370928738,1.4322183924830354,-0.6878800172344199,16.623536940413256,0.14718352306183127
72048.313365179,72045.1033220718,3.2100431071965687,-1.0485622709456948,16.697083708514803,0.14880633248196062
71177.71795297928,71172.0336366331,5.684316346177648,-1.4216347918409156,16.770813611220387,0.1504478865322362
70313.87470956915,70305.02847685396,8.84623271519832,-1.7946259553937125,16.844724588798126,0.15210891576576716
69456.90620277537,69444.2197298358,12.686472939569056,-2.1640103334066225,16.91881497861504,0.15378868561558942
68606.87865675888,68589.68311775922,17.19553899965686,-2.532596054210444,16.99308285946524,0.15548775838769854
67763.85026746239,67741.48652470695,22.363742755432007,-2.8990806584479287,17.067522875127917,0.15720599888192457
66927.88706391708,66899.70574208243,28.181321834648514,-3.2664216508710524,17.142134692675658,0.15894337468323425
66099.06765543169,66064.42997106226,34.63768436942634,-3.6375372420516214,17.21691538866625,0.16070126146902933
65277.363819075,65235.64080680997,41.723012265032565,-4.003679061192088,17.29186411604088,0.16248003479666018
64462.806945492295,64413.379740528784,49.42720496351121,-4.3786677733805845,17.366978166946566,0.16427877260219031
63655.3777938814,63597.637995337915,57.73979854348384,-4.750054274860304,17.442254009014718,0.16609724907504456
62855.219138407985,62788.569079165885,66.65005924209845,-5.136196899904462,17.517688232812816,0.1679356007911672
62062.292042017885,61986.144879954474,76.14716206340944,-5.521712771536841,17.593278290220503,0.1697942381539296
61276.7762155938,61190.55700686863,86.21920872517329,-5.910084113689663,17.669020836038705,0.17167294540765696
60498.61850857624,60401.76348438081,96.85502419542922,-6.290608956674987,17.744910898803006,0.17357314617616323
59727.819376533356,59619.77590106903,108.04347546433131,-6.646618882885377,17.820947189579634,0.1754946626458971
58964.395883899044,58844.62156231934,119.77432157970324,-6.9914145040893345,17.89712782975581,0.1774374765082096
58208.423455729324,58076.38818289576,132.0352728335658,-7.317010570979619,17.973450272171444,0.17940159315693174
57459.88457432357,57315.069166598536,144.81540772503914,-7.649950509818154,18.0499121524285,0.18138661140713155
56718.742386177386,56560.63996090396,158.1024252734302,-7.995413662974897,18.126510917828227,0.18339346817014077
55984.98221360204,55813.09597726138,171.88623634066025,-8.345667311288707,18.203242465438528,0.1854224986489915
55258.62984106274,55072.47522597786,186.1546150848818,-8.679908267593419,18.28010615118101,0.18747324532385654
54539.66792593328,54338.77043268511,200.89749324816893,-8.992087223698036,18.357097726027003,0.18954598856136973
53828.155878282334,53612.05500222556,216.10087605677273,-9.272630471336015,18.434213939619777,0.1916409829481501
53124.102677126706,52892.348564384076,231.75411274262703,-9.540521580929635,18.511449907840507,0.19375801814905283
52427.520179455714,52179.6782949765,247.84188447921815,-9.770359447386,18.588804833072913,0.1958982119318996
51738.386034085575,51474.030218358814,264.35581572676,-9.971245642031136,18.66627262853794,0.1980609353535421
51056.61924295567,50775.33584701448,281.2833959411896,-10.139636844549386,18.74385061030512,0.20024611058513267
50382.224016494685,50083.60882382589,298.61519266879566,-10.304032780964917,18.821535453811894,0.20245413828458184
49715.202700566595,49398.86602949298,316.33667107361435,-10.47153951675864,18.89932363674057,0.20468529722374776
49055.54395945916,48721.10791706979,334.43604238936757,-10.640074920418556,18.97720641437158,0.20693876040451764
48403.164157669395,48050.262268678765,352.90188899062923,-10.80565646688774,19.05518454793928,0.2092161988608797
47758.117386418446,47386.39519584508,371.72219057336616,-10.96029768014705,19.13325216713371,0.21151682914933748
47120.37669206335,46729.494358738884,390.8823333244667,-11.120003245421685,19.21140623377829,0.21384244143499961
46489.91748943331,46079.544484299186,410.37300513412805,-11.247853323635354,19.289641030563413,0.21619117118134024
45866.66125219794,45436.47692014654,430.1843320514023,-11.351317219610792,19.367954259063517,0.21856282958843756
45250.5704365748,44800.26462253671,450.3058140380902,-11.435473338940938,19.44633713528047,0.22095776213999443
44641.52417264459,44170.79879504691,470.72537759767937,-11.522573077338166,19.524788905089572,0.22337614431873612
44039.52254666138,43548.086380552646,491.4361661087292,-11.607361440284876,19.60330423767762,0.22581809949310672
43444.57097217964,42932.14704796545,512.4239242141883,-11.684145207655092,19.681876781902698,0.22828357750367634
42856.6403917928,42322.960644929866,533.6797468629325,-11.750771294144215,19.760503020096113,0.23077298607948873
42275.67833775459,41720.487597663494,555.1907400910966,-11.794800267161918,19.839171211059522,0.23328648128382387
41701.66005375767,41124.71289975692,576.9471540007448,-11.825777191945235,19.917877605479497,0.2358247228573355
41134.54179679005,40535.60545458694,598.936342203111,-11.84166744002141,19.996617914972624,0.23838617362625447
40574.29624249544,39953.14594167596,621.150300819478,-11.831648163846694,20.075390127076012,0.24097140075158216
40020.901234336816,39377.325069369675,643.5761649671392,-11.798979659826728,20.154193799611747,0.2435806997564978
39474.37086429386,38808.16800999305,666.2028543008031,-11.731145673053106,20.233026534313623,0.24621407237210993
38934.640519260465,38245.62294677778,689.0175724826843,-11.649269772991829,20.311879093957476,0.24887078031807372
38401.68479792632,37689.67451588266,712.0102820436587,-11.579409461868636,20.39074929590553,0.2515520002817435
37875.51831805053,37140.3471063659,735.1712116846226,-11.5161914985365,20.46962906555491,0.25425751596132323
37356.012080470515,36597.52586395353,758.4862165169848,-11.472444609782542,20.548512895277984,0.25698763568253813
36843.1916403592,36061.24311103899,781.9485293202076,-11.441029435351084,20.627393492084337,0.2597425998242601
36337.00121481192,35531.454127511664,805.5470873002581,-11.416846537817037,20.70626543684781,0.26252245203137464
35837.3922541261,35008.11938409165,829.2728700344479,-11.407702614691516,20.785119736760834,0.2653265406599196
35344.36522217654,34491.25307079496,853.1121513815756,-11.407698746967071,20.863957044771297,0.26815529891571344
34857.709195959804,33980.64907023859,877.060125721212,-11.42324603877205,20.94276391574619,0.27100715869219744
34377.432080268634,33476.321063693074,901.1110165755604,-11.425570998988405,21.021528155672854,0.27388196558133343
33903.55610587782,32978.30645195838,925.2496539194382,-11.4396467301558,21.100245849493817,0.27677966921592195
33435.84716957501,32486.379267692108,949.4679018829074,-11.437898233307351,21.178907705173206,0.27969938888044815
32974.25938184316,32000.49499491395,973.7643869292094,-11.408315651977318,21.257515348787752,0.28264337182539623
32518.70357704525,31520.571809688823,998.1317673564258,-11.31921529724059,21.336050955002346,0.28560941120424505
32069.137326573767,31046.579396375713,1022.5579301980557,-11.198971955534944,21.414511485412064,0.28859748244422656
31625.650343022902,30578.610754729874,1047.039588293027,-11.062355009264138,21.492882848479795,0.29160710707446474
31188.137574386034,30116.578345649825,1071.5592287362083,-10.909928657594719,21.57116740493077,0.2946382799573431
30756.656864731845,29660.548482881793,1096.108381850053,-10.734036679845303,21.64934391054014,0.29768913897389776
30331.02194791641,29210.34109291329,1120.6808550031187,-10.561369855189696,21.727404017593585,0.3007606912062489
29911.284511208018,28766.01721353581,1145.2672976722076,-10.356778180721449,21.805326652873944,0.30385084949201824
29497.38079068331,28327.517733307177,1169.8630573761345,-10.156563404802,21.883121087579447,0.3069618471209948
29089.25776667145,27894.800565150534,1194.4572015209171,-9.936224050637975,21.960776030262355,0.31009452260654236
28686.876767609036,27467.828321696663,1219.048445912374,-9.72666077780741,22.038284526845455,0.31324746765765704
28290.227730370385,27046.60507901792,1243.6226513524625,-9.504497111251112,22.11562865960122,0.31641980518001017
27899.16227563612,26630.99087490204,1268.1714007340822,-9.299919012926694,22.192809712528483,0.3196116091801741
27513.647351010015,26220.9537657853,1292.693585224716,-9.078976790762681,22.269811777125128,0.3228222760604535
27133.630709715268,25816.457583692758,1317.1731260225085,-8.825146745177335,22.34663068234908,0.3260519595110492
26759.071029637184,25417.457288896097,1341.6137407410868,-8.514946703697206,22.42325017657649,0.32929834231179256
26389.84347583645,25023.83741359806,1366.0060622383894,-8.170343116340518,22.499672681894452,0.33256266697070697
26025.940544885867,24635.58785673486,1390.3526881510084,-7.790080718150421,22.57588684998611,0.33584540729002604
25667.308988900775,24252.667506216043,1414.6414826847308,-7.3662595713176415,22.651893163678775,0.33914651367267373
25313.933709727156,23875.066335305488,1438.8673744216674,-6.879957846744219,22.72766462232163,0.34246315517981635
24965.73016916166,23502.710533719186,1463.0196354424725,-6.3424960196061875,22.803196224316807,0.34579667353132376
24622.7567537713,23135.65858595594,1487.0981678153587,-5.775732687186974,22.87845875472172,0.34914549170522785
24284.79368816308,22773.70401479534,1511.0896733677394,-5.171711356044398,22.9534665790693,0.3525108893392092
23951.94458794037,22416.949919185143,1534.9946687552265,-4.528171664511319,23.028191148560463,0.35589289824180675
23624.06513542599,22065.266162127868,1558.7989732981227,-3.8296156640644767,23.102634111714675,0.3592925629607562
23301.159100088844,21718.64845355588,1582.5106465329611,-3.134708280005725,23.176767244566694,0.3627058753805615
22983.059210333224,21376.94527104458,1606.1139392886448,-2.4054552190355025,23.250586327608236,0.36613127117609195
22669.79906622572,21040.17888269323,1629.6201835324887,-1.6815177901517018,23.324071064738288,0.3695692493600274
22361.19319963179,20708.17638044873,1653.0168191830605,-0.8781526050224784,23.397217183546736,0.37301894838498595
22057.299358396474,20381.003453457226,1676.295904939249,-0.04157732186286012,23.470000992635836,0.37648079277254753
21758.061591800564,20058.60567226178,1699.4559195387858,0.8909283292596228,23.542413317135566,0.37995032043852844
21463.338029026636,19740.846889603938,1722.491139422697,1.81280385057471,23.61445307725887,0.3834309496251203
21173.145790538143,19427.746574537377,1745.3992160007647,2.7792115569027374,23.68608742781014,0.3869208007368483
20887.417266814744,19119.24332798619,1768.173938828553,3.7321777791221393,23.75730851160329,0.39041939363548384
20606.168001813905,18815.361478968633,1790.806522845274,4.70030091029912,23.828104666270676,0.3939272234590845
20329.22376073084,18515.923921458867,1813.2998392719758,5.662506812135689,23.898460017796154,0.39744104820595166
20056.607440629945,18220.961533041747,1835.6459075881976,6.667572086815198,23.968369348415102,0.40096415517636813
19788.191149681254,17930.334145566456,1857.8570041147962,7.660144649322319,24.037786464935984,0.40449263926521023
19524.09768083485,17644.195906623318,1879.9017742115311,8.709217081057432,24.106725254427268,0.40802939395470533
19264.119766048094,17362.308962892424,1901.8108031556692,9.728984125249553,24.175139330681024,0.41156699813121334
19008.30242027991,17084.759136389777,1923.5432838901322,10.790992015623488,24.24306276773237,0.4151138472386933
18756.578429798778,16811.437970560233,1945.1404592385454,11.866751068810117,24.31042691548779,0.41865821382585633
18508.962295028978,16542.415857037024,1966.546437991954,12.977508994139498,24.377282659232527,0.4222084307168226
18265.363358526,16277.551381824598,1987.811976701401,14.037056954133732,24.44355166637418,0.4257563174042261
18025.726210546694,16016.840978795211,2008.885231751482,15.077839753605076,24.509282594003764,0.42931065832149296
17789.92147427665,15760.098371734042,2029.823102542607,16.030691200416186,24.574417707504495,0.4328648974051765
17558.044579129288,15507.48511208795,2050.559467041338,16.943179189001967,24.63898438662481,0.43642321150323743
17329.96168205022,15258.809368954147,2071.1523130960727,17.762979472376173,24.70292021373404,0.439980841957041
17105.704879599194,15014.167123949414,2091.537755649782,18.557143397905747,24.76623729566508,0.44353848856244843
16885.097056363622,14773.310242706768,2111.7868136568536,19.264751728514966,24.82888298676508,0.4470927524154873
16668.29348653824,14536.478007888963,2131.815478649277,19.92683844367275,24.89088483687685,0.4506476710710949
16455.033018314527,14303.331043337532,2151.701974976997,20.528401823125023,24.952190011484333,0.4541983947823629
16245.536125110353,14074.172641063846,2171.3634840465083,21.095770693696977,25.012798268936084,0.457744218176751
16039.446516191803,13848.563848788819,2190.8826674029847,21.623059447141713,25.0726852601101,0.46128496108539885
15837.131185421713,13626.96509916942,2210.166086252293,22.10375203860167,25.131857165500058,0.4648195707904684
15638.212536759103,13408.911706502844,2229.30083025626,22.569559367701004,25.190273107250935,0.4683482853128113
15442.82809082273,13194.616848581643,2248.211242241086,23.02069931601727,25.247949016238145,0.47186819048852424
15250.825312645502,12983.872774341868,2266.9525383036353,23.468253259459743,25.304863351027084,0.47538106063803226
15062.10501759254,12776.625971380567,2285.479046211972,23.90787284514954,25.36102111605846,0.4788831292177543
14876.706593992283,12572.867861789302,2303.838732202981,24.37129669936985,25.41638883947205,0.4823763840693503
14694.503378399451,12372.51883913689,2321.9845392625616,24.886350910943293,25.47095352608601,0.48585750841496056
14515.489024219312,12175.526617090894,2339.9624071284184,25.44715166354581,25.52470283556761,0.4893300668389485
14339.511559739347,11981.787667656881,2357.723892082466,26.068226379997213,25.577614331605567,0.4927877532788461
14166.628663308082,11791.302991140841,2375.32567216724,26.71789233009622,25.62965445040956,0.4962323269882336
13996.773641561325,11604.061729478906,2392.7119120824186,27.459654002755997,25.680841997529505,0.4996631249317907
13830.00717357362,11420.073587908793,2409.933585664827,28.26851424772758,25.73113716812238,0.5030786216127242
13666.262463937568,11239.333524421607,2426.9289395159603,29.139607749675633,25.780555261355094,0.5064808087645217
13505.396213631047,11061.627675450572,2443.768538180474,30.029916347557446,25.829045077178854,0.5098630913160694
13347.512097281025,10887.124633212765,2460.38746406826,30.94781264825724,25.87660721548044,0.5132260363251916
13192.299355001713,10715.44873060496,2476.8506243967527,31.88296233570145,25.923217789439335,0.5165664242066276
13039.96210454751,10546.862017059037,2493.100087488475,32.87249583797529,25.968871150186224,0.5198902884024673
12890.292219953299,10381.115384815974,2509.176835137324,33.868390880124934,26.013563609288596,0.5231915764811282
12743.284601260024,10218.233741622114,2525.05085963791,34.910582282092946,26.057283460110398,0.5264728847597133
12598.91760661452,10058.166023579355,2540.7515830351645,35.99048343083996,26.099994667569185,0.5297275856987119
12457.22991701117,9900.976686471859,2556.25323053931,37.15265121887933,26.141713836309247,0.5329578398675943
12317.998453415099,9746.41774521584,2571.5807081992584,38.38799554815341,26.18239779635056,0.5361573614750582
12181.40947974328,9594.701765721245,2586.7077140220363,39.74247776079574,26.222030144066636,0.5393279339234242
12047.227367918886,9445.543189171254,2601.684178747632,41.155518799467245,26.26061338322159,0.5424701157321947
11915.799304545646,9299.350066955905,2616.44923758974,42.65120426379872,26.29811018429852,0.545579087359483
11786.549749830032,9155.487786744246,2631.061963085786,44.19289765430585,26.33453241314595,0.5486560601139945
11659.990660252173,9014.526611605872,2645.464048646302,45.83969700029411,26.369827389726687,0.5516924331596981
11535.705049931985,8875.989242976322,2659.715806955662,47.496579412327264,26.4040137744635,0.5546910300890636
11414.017407317333,8740.271132277803,2673.746275039529,49.2393345154851,26.437083642245526,0.5576529701072456
11294.534796265893,8606.912671331957,2687.6221249339355,50.97405716056528,26.469033492159326,0.5605760290689624
11177.469219225339,8476.176259467562,2701.2929597577768,52.84270277900214,26.499872656008378,0.5634603123496985
11062.728460702445,8347.918523562601,2714.809937139844,54.73246732395637,26.52957545602446,0.5663051987366571
10950.126973588396,8222.008800132477,2728.11817345592,56.77596604196151,26.558142283610884,0.5691067697627333
10839.779191513253,8098.489806617319,2741.2893848959334,58.852043142302136,26.585585479173446,0.5718716043221981
10731.609740246222,7977.380604616027,2754.229135630194,61.03904053301085,26.611901511646195,0.5745906539861355
10625.493043499822,7858.440831659991,2767.0522118398317,63.26457200788718,26.63709243520605,0.5772721286772903
10521.676867464252,7742.033705431626,2779.643162032626,65.59826269945916,26.66114104396199,0.5799105407546024
10419.809525100503,7627.711699236686,2792.097825863818,67.99682833856787,26.684037055072146,0.5825042505901812
10320.12236850533,7515.779648732694,2804.3427197726355,70.50020713579579,26.70577635743548,0.5850526499867387
10222.276859582922,7405.823079073483,2816.4537805094383,73.07584250770742,26.72638239792578,0.587556197852151
10126.640967065829,7298.288339626081,2828.3526274397473,75.74030512492027,26.74583123907205,0.5900084406712152
10032.701346496784,7192.560653556851,2840.140692939933,78.43540043179382,26.76414457953578,0.592414027929404
9940.768381906633,7089.045107080889,2851.723274825744,81.2075255572563,26.78132526327909,0.5947770708532022
9850.562345840623,6987.387203722191,2863.1751421184326,84.03551583836088,26.797357597610883,0.5970949345540979
9762.14693962585,6887.712500873255,2874.434438752597,86.96253839395649,26.812245959519984,0.5993657504549943
9675.470018402899,6789.87834897309,2885.5916694298094,89.98198624417273,26.82598512252181,0.6015924361616961
9590.464619036018,6693.923285140522,2896.5413338954963,93.13587621356419,26.838572767909056,0.6037696432122369
9507.248646737698,6599.8558769175315,2907.392769820167,96.38114264509932,26.850017012797736,0.6059010145377136
9425.909011816631,6507.877632097504,2918.0313797191284,99.7719368643302,26.86032283869636,0.6079859018366066
9346.079135462493,6417.5060127700735,2928.57312269242,103.28255007406551,26.869509695143666,0.6100246181487593
9267.854997205424,6328.937091132026,2938.917906073398,106.91729703227611,26.877554139555755,0.6120141647799687
9191.364967551168,6242.19063976862,2949.1743277825476,110.6101893390005,26.88449435810891,0.6139647759221053
9116.383349674432,6157.1680160955075,2959.2153335789244,114.45975117684429,26.890294639414172,0.6158698824522358
9042.917680773802,6073.713189822297,2969.2044909515057,118.34207777764095,26.895003715270917,0.6177359495610271
8971.15128842888,5992.194513730048,2978.956774698832,122.38564013563882,26.89858739838556,0.6195550863798959
8900.622280124962,5911.965936739915,2988.6563433850474,126.51113867539243,26.901116205108828,0.6213363704808856
8832.070739786803,5833.930499866898,2998.140239919904,130.71002216324268,26.90253771973955,0.6230661134682758
8764.664710552415,5757.107871371349,3007.556839181067,134.99042556013592,26.90293399627288,0.6247593187935173
8698.946713765688,5682.185124977762,3016.761588787926,139.327467454219,26.90226436285228,0.6264079216026088
8634.248521085086,5608.318573245613,3025.9299478394737,143.7095208832252,26.900591194637222,0.6280186347683611
8571.027929463427,5536.148518439695,3034.8794110237327,148.13186065979244,26.897830714291196,0.6295798689389296
8508.920293890864,5465.108392754328,3043.811901136535,152.5656228359221,26.894036664673617,0.6310960415372912
