energy,prior,fidelity,mass,psnr,ssim_indices
34468.53177070143,34468.53177070143,0.0,0.0,20.006684199092977,0.1817992310863201
30704.09815017428,30688.609561030513,15.488589143765962,1.610835480503738,20.535534703037687,0.19560050161333997
27382.042273379015,27323.81243490975,58.2298384692673,3.2721288710599765,21.05748205578568,0.21015129766958926
24459.055484640285,24335.989182053287,123.06630258699919,4.983447072445415,21.571198256202514,0.2254222579763864
21894.189979255072,21688.79462273641,205.39535651866552,6.756763287587091,22.075409948116395,0.24136105896614013
19648.987141942758,19347.838820946883,301.1483209958764,8.621573182870634,22.568912396870566,0.2579149645738236
17687.732978634293,17280.96832241991,406.7646562143802,10.603921397472732,23.050580692155258,0.27501044459346796
15977.556515557504,15458.392162751445,519.1643528060589,12.725437646382488,23.519391974712764,0.2925866406139456
14488.420504744583,13852.70608646406,635.7144182805228,14.997257750364952,23.974449382338506,0.3105643668419351
13193.12540815973,12438.93110209828,754.1943060614501,17.408309905789793,24.41497801086718,0.3288519687932605
12067.144628848338,11194.377587343071,872.7670415052667,19.927361868089065,24.84033498216359,0.34735825997859204
11088.574297798856,10098.628970101941,989.9453276969148,22.566086063859984,25.250008682345005,0.36599838359805736
10237.976782810065,9133.426594430464,1104.550188379601,25.30316682672128,25.64361569839565,0.3846929030478694
9498.218367314441,8282.536931659271,1215.6814356551702,28.137043116497807,26.020888887092234,0.40335116696853346
8854.295347610941,7531.6195277555125,1322.675819855429,31.074933868832886,26.38166810002604,0.42190351348706173
8293.11766435082,6868.043263238939,1425.0744011118807,34.136522370623425,26.725889177224055,0.440282366382724
7803.343754634634,6280.754194612491,1522.5895600221434,37.33633691887371,27.053574809043365,0.45841456138944947
7375.169702907819,5760.0945131747,1615.0751897331181,40.69259627594147,27.364824147637723,0.4762527446844069
7000.14400256133,5297.6448050506715,1702.4991975106582,44.21209680882748,27.65980287815911,0.4937544995800778
6671.004811601253,4886.083043071269,1784.921768529984,47.90813472203445,27.93872410086291,0.5108676769144829
6381.5311698347095,4519.0590720355995,1862.4720977991103,51.78572657331824,28.20184852040628,0.5275493755151138
6126.399601921303,4191.076017165218,1935.3235847560845,55.84121644159313,28.449476692768606,0.5437776394089214
5901.047018036525,3897.3650016319434,2003.6820164045807,60.0724711867515,28.68193973571243,0.5595255981167645
5701.56053987434,3633.7861021684785,2067.7744377058616,64.47114781395067,28.899607980434435,0.5747830952547737
5524.5876519287285,3396.7467112093727,2127.840940719356,69.02585543494206,29.102878196266563,0.5895346180258626
5367.247031013716,3183.126751757591,2184.1202792561253,73.74404691217933,29.292172325542005,0.6037729021488615
5227.060561715828,2990.2100948520992,2236.850466863729,78.63036660430953,29.467928378387136,0.6174965951205936
5101.892540581331,2815.6304236882756,2286.262116893055,83.69006776984315,29.63061039356219,0.6307056472053135
4989.900343334471,2657.3219818528105,2332.57836148166,88.92022182687651,29.78069473399085,0.6434068702228517
4889.494576805229,2513.485203854463,2376.009372950766,94.30755035427865,29.91866339694539,0.6556010095253996
4799.2992311269245,2382.5453013316805,2416.7539297952435,99.8416910325177,30.04501033125807,0.6672924598220562
4718.120294337097,2263.1214917835523,2454.998802553545,105.51281504088547,30.16023551028362,0.6784969300971272
4644.92074269926,2154.0013059183116,2490.9194367809478,111.31374417431653,30.264841613459904,0.6892232834202998
4578.795410257819,2054.1161802285196,2524.6792300292996,117.23263685894199,30.359332121732947,0.6994842814337918
4518.956220643375,1962.5264451763483,2556.429775467026,123.25620383687783,30.444205506004526,0.7092928810839142
4464.714753776628,1878.403670896064,2586.311082880564,129.36388552747667,30.519958825832198,0.7186626367136126
4415.468171205277,1801.0153822759376,2614.45278892934,135.53816481353715,30.587083130837165,0.7276086326064993
4370.686951925277,1729.7122821054356,2640.9746698198414,141.7679537513759,30.646061398291952,0.7361446492659741
4329.904848481636,1663.916866385346,2665.9879820962897,148.04253412096296,30.69736694852047,0.7442856252205975
4292.711093013888,1603.114947107988,2689.5961459059,154.3518648678437,30.74145932680932,0.7520462807021655
4258.743100691629,1546.8483858313093,2711.8947148603193,160.68858528754208,30.778784132458156,0.7594422687844046
4227.6807796849125,1494.7087851344932,2732.9719945504194,167.04363938805182,30.809773739695476,0.7664890718995815
4199.239463884422,1446.3295211027537,2752.9099427816677,173.40939767006785,30.83484556283163,0.7731994591480852
4173.167069560263,1401.382101310642,2771.7849682496217,179.78050637140404,30.854398671931623,0.7795893742353481
4149.239722865969,1359.5716438355319,2789.6680790304376,186.15093152830377,30.868814757884408,0.7856690775660805
4127.258292229515,1320.6329828069456,2806.6253094225694,192.5161541964626,30.878458792445308,0.7914541687318875
4107.045040461822,1284.3271550608097,2822.7178854010126,198.87182387453504,30.88367933845488,0.7969560736628781
4088.440718524642,1250.4382689650408,2838.002449559601,205.21197090903297,30.884805755798954,0.802187074872986
4071.3030515840173,1218.7713095113554,2852.531742072662,211.52915934904013,30.882150203227017,0.8071594378548764
4055.504374475208,1189.1494978835344,2866.3548765916735,217.81614039384294,30.876008433948407,0.8118839598329116
4040.9300351709385,1161.4124071501524,2879.517628020786,224.06675546686165,30.866660470207584,0.8163699841814661
4027.476816684643,1135.4142500763683,2892.0625666082747,230.27727968909312,30.854371159650356,0.820629431193395
4015.0514864467195,1111.0220975271145,2904.029388919605,236.44511565344874,30.839389398777534,0.8246721387082753
4003.5697825160296,1088.1146495278979,2915.455132988132,242.56887845578603,30.82194910646056,0.8285072452402887
3992.9554257155796,1066.5810923587567,2926.3743333568227,248.64778975758236,30.802269999633154,0.8321448068719163
3983.139276387959,1046.320192795054,2936.819083592905,254.68161807674915,30.780557885889934,0.8355937294689083
3974.058644097655,1027.2394112786228,2946.819232819032,260.6707035487052,30.757005260180712,0.8388632446704877
3965.6564803651654,1009.2539226746023,2956.402557690563,266.615956082358,30.7317920419868,0.8419614840832018
3957.8807783272778,992.2858630370383,2965.5949152902394,272.51867537386715,30.70508547407674,0.8448962989397532
3950.684424924453,976.2640674687966,2974.4203574556564,278.3802198842168,30.677040956010693,0.8476758863037972
3944.0243180374637,961.1230075717151,2982.901310465749,284.20157030783594,30.64780318494386,0.8503080534058397
