energy,prior,fidelity,mass,psnr,ssim_indices
89810.7132207411,89810.7132207411,0.0,0.0,26.026792576017716,0.401179205215453
86990.44023681719,86989.29038821919,1.1498485979905533,-0.6048627413110808,26.238631270076112,0.41069506442325876
84223.4601143742,84218.90558888395,4.554525490260741,-1.188606292125769,26.451797921973853,0.4204748170254225
81512.40895210482,81502.26847205467,10.140480050148557,-1.7768545415019616,26.666173560847373,0.4305158945504737
78859.71651467052,78841.88970712182,17.8268075487046,-2.3834779332391918,26.88162774665402,0.44081442150059474
76267.75631724483,76240.23147872633,27.524838518496857,-3.0212320195278153,27.098021537974457,0.45136425447457523
73738.12887744598,73698.98911929311,39.13975815287443,-3.5936321624321863,27.31521578155818,0.462158935183018
71272.07584997917,71219.50376782977,52.57208214940098,-4.080173800815828,27.53304849649373,0.47318992369222995
68870.24124764414,68802.520124677,67.72112296714067,-4.465720381238498,27.75135727968921,0.4844463767282474
66533.09190752945,66448.60938318068,84.48252434877041,-4.692163951927796,27.969964446043598,0.4959162222266458
64261.47151223961,64158.72217017734,102.74934206227086,-4.78331808547955,28.188669897273762,0.507585844649902
62055.67274525088,61933.265463005075,122.40728224580361,-4.8700916634406894,28.407270965066186,0.5194397974069982
59915.68926143598,59772.33946831387,143.34979312211382,-4.873883276595734,28.6255605519263,0.5314624013314094
57841.419159864774,57675.95627835172,165.46288151305515,-4.826386017375626,28.843303045005378,0.5436352157618217
55832.41893358802,55643.77933695387,188.63959663414985,-4.701622596359812,29.060258386736038,0.5559394612620264
53888.4915699052,53675.72339345886,212.76817644634042,-4.485338248196058,29.276161701951263,0.5683527090799634
52008.82166284468,51771.07291686751,237.74874597717576,-4.114549026591703,29.490766860354917,0.5808546325599236
50192.881681557265,49929.41293119766,263.4687503596089,-3.6143023328622803,29.703792056002385,0.5934208095286725
48439.5587991736,48149.72423610286,289.8345630707394,-2.9575951078440994,29.914923671475258,0.6060262978366012
46748.0357805963,46431.29555505857,316.7402255377311,-2.2357133139157668,30.123813858441892,0.6186426143611695
45117.449237494235,44773.35187062866,344.0973668655749,-1.3353883884847164,30.33013863612345,0.6312447282122183
43546.9951939117,43175.19492614208,371.8002677696181,-0.2819719680119306,30.533557100585917,0.643805516771563
42035.45556799665,41635.691626423046,399.76394157360534,0.989827741868794,30.73373421647249,0.6563006739318952
40581.78385098066,40153.88598491675,427.89786606391215,2.4301479590358213,30.930292554397845,0.6687015673738145
39184.814837637765,38728.68881653942,456.1260210983481,4.087704975507222,31.122890409019604,0.6809836556647358
37843.093915158985,37358.7259781454,484.36793701358874,5.9910230041714385,31.31110634416504,0.6931181673097467
36555.46070423363,36042.897500212865,512.5632040207673,8.060415033367462,31.49459420104098,0.7050823294226533
35320.68294155348,34780.05733400169,540.6256075517913,10.310377187561244,31.672903608562862,0.716847981149003
34137.82147247295,33569.317642875554,568.5038295973934,12.58585936005693,31.845690941667307,0.7283922060301884
33005.565015108295,32409.435595807918,596.1294193003811,14.951106583699584,32.01252453626091,0.7396914653103268
31922.570554768714,31299.11960439713,623.4509503715836,17.42602005705703,32.17312809548723,0.7507270095073019
30887.291954382385,30236.865935490267,650.4260188921173,20.148190477513708,32.327090368008186,0.7614791153004425
29898.087933078332,29221.08742476715,677.000508311182,23.071320404182188,32.47414002626332,0.7719316610128275
28953.648904517,28250.50961569193,703.1392888250672,26.31478249351494,32.61389621243101,0.7820669820062635
28053.007828387388,27324.20381955343,728.8040088339599,29.777962944703177,32.74610401142104,0.7918703657890792
27194.67235640815,26440.724387409897,753.9479689982539,33.398139124619775,32.870471101302364,0.8013308854692546
26377.24416173177,25598.68020639384,778.5639553379312,37.1582909548888,32.98685933812951,0.8104415501550518
25600.29755859305,24797.714137776544,802.583420816508,41.171552406973206,33.095085779240904,0.8191958348914213
24861.92598609467,24035.914072116866,826.0119139778051,45.500293966033496,33.195015496607446,0.8275900024327617
24161.094400336635,23312.280165681503,848.8142346551306,50.048642422421835,33.28653347046425,0.8356193657788912
23496.286070608003,22625.29698921477,870.9890813932334,54.68122947833035,33.36960115282415,0.8432845606295384
22866.36793227748,21973.847581526734,892.520350750745,59.5327122308081,33.44415433893194,0.8505827363349056
22269.389006146168,21355.984042909273,913.4049632368963,64.67466170946136,33.510297913030215,0.8575192319143962
21704.24506426268,20770.605937454286,933.6391268083922,70.10016990045551,33.56795300881187,0.8640903159517102
21169.118049039826,20215.918362995322,953.1996860445023,75.71509867766872,33.61731420042795,0.8703029555843643
20663.70052159486,19691.567594096385,972.1329274984761,81.39904883352574,33.65842723967253,0.8761593438832057
20186.677317524794,19196.28447840191,990.3928391228841,87.20366121991538,33.69150630615558,0.8816666307766775
19736.917735044764,18728.898125799613,1008.0196092451516,92.95412729447708,33.71664511273692,0.886831986796833
19312.949362717787,18287.961039662572,1024.988323055216,98.63986925850622,33.73425299746547,0.8916675338655375
18913.906021509894,17872.56361844501,1041.3424030648864,104.17691000236664,33.74443879602773,0.8961781453740976
18538.5796283066,17481.512352514907,1057.0672757916946,109.62718794785906,33.74756056605355,0.9003782247356985
18186.461927842283,17114.295186220188,1072.1667416220944,115.06767663219944,33.7437784171922,0.9042717484727273
17855.286969860266,16768.576163324193,1086.7108065360735,120.33998564060312,33.733634445930264,0.9078783714692102
17545.337705157057,16444.714268931417,1100.6234362256382,125.46857573802117,33.717200794555204,0.9112024684740424
17253.928946621745,16139.850484790508,1114.0784618312366,130.5761565695284,33.69489318727882,0.9142592789256105
16982.392390882032,15855.471498269964,1126.9208926120666,135.46748317359015,33.666928740068506,0.9170579311579709
16727.5962841526,15588.23937842697,1139.3569057256316,140.47874439007137,33.633700812773654,0.9196163018610161
16489.71433981094,15338.49784460416,1151.216495206778,145.42987955000717,33.59553090299336,0.9219416129278496
16267.383964110039,15104.683282677697,1162.700681432341,150.19312621990684,33.55259261042367,0.9240488618812664
16059.530557229606,14885.832851941976,1173.6977052876293,154.7807613881305,33.50540264176204,0.9259496722497396
15865.915295435816,14681.59180941224,1184.323486023575,159.19004238105845,33.45411369990745,0.9276576897428468
15684.652111694902,14490.09367264039,1194.558439054512,163.49601935304236,33.39911377494873,0.9291799003911851
15516.250679180905,14311.797701698739,1204.4529774821656,167.37242048606277,33.34061412611437,0.9305345868836312
15358.178504517913,14144.161871429245,1214.0166330886675,170.90480267407838,33.278976328816455,0.9317247990224921
15211.729013445747,13988.429134021022,1223.2998794247255,174.01061329233926,33.214373567982925,0.9327717312290874
15073.881321081111,13841.590568779156,1232.2907523019549,176.75319140404463,33.147094667590984,0.9336701647412311
14946.087829628985,13704.996215724408,1241.0916139045764,178.95402496354654,33.077297732471955,0.9344445625344905
14826.773238758382,13577.176155973826,1249.5970827845556,180.67307349760085,33.005300317398635,0.9350910924736849
14715.250294749865,13457.245771252481,1258.004523497385,181.9742472047219,32.93118828047255,0.9356342978874265
14611.346616239767,13345.205412557314,1266.141203682453,182.7033967426978,32.85526776031856,0.9360697584668379
