energy,prior,fidelity,mass,psnr,ssim_indices
74602.61183150446,74602.61183150446,0.0,0.0,16.485330847969614,0.14451184234384487
73713.22131569535,73712.86211399872,0.3592016966291664,-0.6243264498843928,16.558578083198622,0.1461054820388873
72830.21172609454,72828.78021913952,1.431506955022637,-1.2565496901370352,16.632014616708343,0.14771792324107794
71953.66327616839,71950.4546487658,3.2086274025879304,-1.8953795511115459,16.705637460066853,0.14934897815092452
71083.67133490603,71077.98915690689,5.682177999148219,-2.536313275581051,16.779443226033365,0.15099908804717735
70220.28843668819,70211.44511039936,8.843326288825402,-3.1759249948809156,16.853429553822863,0.15266784641489015
69363.62734946539,69350.94409482642,12.683254638965465,-3.8158110032891273,16.927592097208937,0.1543553924481387
68513.83678101699,68496.64439362987,17.19238738711262,-4.449044043009053,17.001929927620182,0.1560627163434979
67670.97937928776,67648.61854732597,22.36083196179124,-5.082560594892129,17.07644094140162,0.15778959721294228
66835.08987272943,66806.91071443085,28.179158298577626,-5.736992267506139,17.151122315737076,0.15953587919754295
66006.23160109803,65971.59438128652,34.63721981151574,-6.416727023322892,17.225971352120027,0.16130176958676393
65184.42041258787,65142.69541282163,41.724999766236834,-7.111702077934751,17.300987718151074,0.16308740532336027
64369.69673264593,64320.264141545325,49.43259110060342,-7.81671611834463,17.376168822661594,0.16489316642232568
63562.13757960414,63504.38818095411,57.74939865002959,-8.53149164984643,17.45151143785774,0.1667190485841545
62761.812013167706,62695.1476556422,66.6643575255055,-9.253230820773751,17.527013133051092,0.16856557074287762
61968.80785410645,61892.64090630201,76.16694780444381,-9.991924495858257,17.602670285558276,0.170432055258118
61183.11950220372,61096.87416567388,86.24533652984154,-10.737719714925333,17.67848066434119,0.1723186639645912
60404.72575665974,60307.83664647672,96.88911018302616,-11.492950018742704,17.754440697948347,0.17422573363020574
59633.7735908981,59525.68687122722,108.08671967087946,-12.235879326675786,17.830546674441514,0.17615304510048943
58870.21882103568,58750.39334967029,119.8254713653956,-12.969193026081484,17.906799100036036,0.17810096558717659
58114.03693724714,57981.94029950008,132.0966377470641,-13.7191411346721,17.983193035057212,0.18007041475430197
57365.266532818205,57220.37781656782,144.88871625038445,-14.469304797305085,18.059725576534163,0.18206133664185564
56623.97838490912,56465.790052523516,158.18833238560075,-15.212440090275777,18.136392385457125,0.1840736996517257
55890.1406059805,55718.15694755445,171.98365842604971,-15.94916279001336,18.21319123317175,0.186107228922631
55163.81628328206,54977.55323684589,186.26304643617252,-16.671836272515066,18.290117165050287,0.18816272678970533
54444.89958992982,54243.88318976728,201.01640016253904,-17.391628699238936,18.367172433033296,0.1902401424623639
53733.443910344104,53517.21264246678,216.23126787732673,-18.106023447064217,18.44435359881581,0.19234008229190624
53029.44479263841,52797.550123577115,231.8946690612948,-18.833539104634838,18.521656085938695,0.19446251628055666
52332.946534040304,52084.9515326842,247.99500135610577,-19.56138833353907,18.599076989838586,0.1966077955095201
51643.90710331948,51379.38660401907,264.5204993004082,-20.30823986197356,18.676609950513267,0.19877544454394527
50962.34001494309,50680.880576947406,281.45943799568266,-21.048463759092556,18.75425103989744,0.20096572882806227
50288.16178389833,49989.3618381809,298.79994571743185,-21.812602693644294,18.831999526400224,0.2031783564890378
49621.39176907694,49304.86082355791,316.5309455190255,-22.589077339078358,18.909849355818086,0.20541399543627772
48961.96925552593,48627.33038786131,334.63886766462116,-23.378440799584496,18.987799932077117,0.2076720242171898
48310.00082431802,47956.888203342896,353.11262097512736,-24.156161598883045,19.06584369276438,0.2099522262814297
47665.39290370649,47293.45597016831,371.9369335381755,-24.937754633181612,19.14397522651106,0.21225523927892329
47028.12017029793,46637.01478367443,391.1053866235026,-25.720135074283462,19.222187441053308,0.2145818882368322
46398.06907817257,45987.46569618017,410.60338199240493,-26.52515970924287,19.300480023220373,0.2169321211918398
45775.19862431602,45344.77473470721,430.4238896088163,-27.340463449982053,19.37884977175216,0.219305480240807
45159.4642261129,44708.90991393942,450.55431217347945,-28.15545238753839,19.457295889660568,0.22170211953769234
44550.92851116373,44079.94388644742,470.98462471630836,-28.972682899955544,19.535809984685773,0.2241220094343873
43949.58069674017,43457.88139173963,491.69930500054363,-29.791439479646215,19.614390560777416,0.2265658571285004
43355.432205162586,42842.74716234404,512.6850428185402,-30.609515029813338,19.69303378309354,0.22903228058684566
42768.40082156672,42234.46887377544,533.9319477912765,-31.428897575082374,19.77173272259982,0.23152232884014015
42188.54452555108,41633.11579151222,555.4287340388596,-32.24895837427175,19.850483402342846,0.23403554321283784
41615.722072722834,41038.55907017059,577.1630025522443,-33.05343587059906,19.92928285728926,0.23657249511856251
41049.95214899301,40450.825034232395,599.1271147606161,-33.844412195991026,20.00812310485479,0.2391315659974951
40491.0986495444,39869.79097363101,621.3076759133943,-34.63014771156304,20.08699976518139,0.24171273494873904
39939.132250875016,39295.432640674764,643.6996102002556,-35.420240035229654,20.16590014282556,0.24431649516052065
39393.89233298138,38727.60344942469,666.2888835566855,-36.222935611818684,20.244820233718713,0.24694377977618373
38855.437296829274,38166.36745179944,689.0698450298397,-37.02791122980125,20.32375471510916,0.2495940514225803
38323.7175392735,37611.69005048647,712.0274887870347,-37.86455319399829,20.40270374856902,0.25226728313440466
37798.8009892356,37063.65403014871,735.1469590868907,-38.70596990811464,20.481655778210865,0.2549630225653085
37280.50237024824,36522.078658721526,758.4237115267154,-39.56549732636631,20.560604794092583,0.25768069234762386
36768.89899988832,35987.05177913909,781.8472207492289,-40.417926418864226,20.639547409480453,0.2604218360045552
36263.81084082434,35458.40448986172,805.4063509626222,-41.25043277671648,20.718479774936913,0.2631858101015116
35765.25544240151,34936.161231075625,829.0942113258841,-42.04929068053025,20.797394021877267,0.26597203905248606
35273.19492663382,34420.296703256885,852.8982233769382,-42.81807417757955,20.876282479530243,0.2687796854053206
34787.551057146884,33910.74470505564,876.8063520912488,-43.551974504276586,20.955137370827572,0.2716100946902467
34308.287506501234,33407.47991834177,900.8075881594616,-44.26070680486009,21.033948142262574,0.2744617009092806
33835.33126599586,32910.432670326176,924.8985956696821,-44.93293671399442,21.112709356993108,0.27733527200154234
33368.64112811573,32419.57151595031,949.0696121654214,-45.585828036833846,21.191424091574316,0.2802315033832076
32908.25989552147,31934.9518426515,973.3080528699742,-46.22228426713991,21.27008227328016,0.283150152736297
32454.060294124938,31456.455359927033,997.6049341979036,-46.83558073363383,21.34868346760719,0.28609169763581704
32006.073975127358,30984.11938110676,1021.9545940205959,-47.40658456169331,21.427218107114655,0.28905529215679254
31564.174118507006,30517.82684909161,1046.3472694153975,-47.94531531588291,21.505681514442053,0.29204209772774603
31128.393087457585,30057.618700061335,1070.7743873962495,-48.49531756964279,21.58406331786626,0.29505031501722906
30698.648189667587,29603.423663608155,1095.2245260594302,-49.05864646916598,21.662355259701755,0.2980808204267003
30274.85075062868,29155.160278048555,1119.6904725801242,-49.655532809010765,21.740545481172944,0.3011323001212844
29856.996530104716,28712.820911371873,1144.1756187328413,-50.22214392206661,21.818630789761663,0.3042067030238406
29444.963599789036,28276.309577382817,1168.6540224062178,-50.79067137357197,21.896603050381252,0.3073013492451318
29038.686326142742,27845.545229228133,1193.1410969146086,-51.300753092669765,21.974454454929546,0.31041833982702577
28638.14975025223,27420.532581893876,1217.6171683583534,-51.77435817321384,22.052179007306655,0.31355529928295117
28243.261743196126,27001.180019884072,1242.0817233120547,-52.15924171105871,22.129768289015196,0.31671215088289856
27853.931853818314,26587.412716180195,1266.5191376381188,-52.521959809891996,22.207221372419752,0.3198898544962352
27470.125124805687,26179.19110976166,1290.934015044027,-52.846176090766676,22.284516236913166,0.32308650183399595
27091.717868727188,25776.4167294327,1315.3011392944854,-53.14216170490545,22.361643275476055,0.326301028839683
26718.725779751458,25379.09114130771,1339.6346384437509,-53.384919742209604,22.43859263314297,0.32953371076036664
26351.072032490272,24987.156803249905,1363.915229240368,-53.61632362866658,22.51534749450043,0.33278336481007814
25988.785380511188,24600.6348242882,1388.150556222986,-53.825963765746565,22.59190368097802,0.33605300879701466
25631.83826242845,24219.514834476828,1412.3234279516223,-54.06394253866165,22.66824951338064,0.3393414402882131
25280.099542265893,23843.667561260587,1436.431981005307,-54.28804082627903,22.744382787414395,0.34265097063635713
24933.434234019827,23472.96834269878,1460.4658913210492,-54.53123693458474,22.820284282697173,0.3459781024640706
24591.962223110415,23107.536908977465,1484.4253141329496,-54.736294771399116,22.895947974041682,0.3493231870067897
24255.47465546683,22747.178528745484,1508.2961267213454,-54.999629627949616,22.97135316035874,0.3526818630857959
23924.02136388443,22391.93851524922,1532.0828486352057,-55.210373745641846,23.046511080518222,0.3560587316021056
23597.449785975456,22041.67185053852,1555.7779354369359,-55.43816737045563,23.12138947374254,0.3594493144641801
23275.857530288726,21696.480024979603,1579.3775053091229,-55.62488384801691,23.195985312650997,0.36285734631459543
22959.011509248223,21356.136953037738,1602.874556210484,-55.82053422751051,23.270275311943877,0.36627974535267005
22647.043408813934,21020.780673235968,1626.2627355779673,-55.95341579039086,23.344266614924347,0.36971735428350677
22339.772937384612,20690.232426586153,1649.540510798459,-56.0799796818319,23.41794060455316,0.37316766441231564
22037.295525592555,20364.595528162747,1672.6999974298105,-56.153042595557054,23.49128757043274,0.3766311065757786
21739.387209393448,20043.65123140789,1695.7359779855594,-56.22977381223609,23.564286839084495,0.3801052905431916
21446.01365528012,19727.362246376404,1718.6514089037141,-56.267606646506465,23.63692129867896,0.38358977307289005
21157.147306828214,19415.70909987444,1741.438206953775,-56.29885409212875,23.709172915236955,0.38708413634619615
20872.726209700737,19108.632730497306,1764.0934792034304,-56.28705811568216,23.78103511624138,0.3905880484497992
20592.785828847474,18806.17510419406,1786.6107246534145,-56.26037380719936,23.852482678091064,0.3940996371246066
20317.16031772871,18508.166378646332,1808.9939390823802,-56.15256595177925,23.923514898884356,0.3976216575342098
20045.92333483115,18214.694235977564,1831.2290988535874,-55.9985110314301,23.994100465821766,0.40115154197773434
19778.97812845199,17925.659721663003,1853.3184067889852,-55.75407639151672,24.06423121121677,0.40469039663979856
19516.305152203327,17641.047492569814,1875.2576596335125,-55.481227223914175,24.133895404562168,0.4082382051376518
19257.680744987843,17360.626821566246,1897.0539234215964,-55.15259618955315,24.203086414838918,0.41179250925396643
19003.21574931373,17084.52183064705,1918.6939186666823,-54.77743456701137,24.27178614829878,0.4153544565147644
18752.739588150853,16812.553714642385,1940.1858735084668,-54.296706975663255,24.339995744046448,0.4189256588318484
18506.333262131815,16544.818231582663,1961.515030549151,-53.77980665770883,24.407662988618025,0.42250147202976485
18263.740096618963,16281.053875386915,1982.686221232048,-53.19941361941892,24.474813238476926,0.4260824027002299
18025.113749014807,16021.425303548796,2003.6884454660105,-52.64793818355247,24.54138434999868,0.42966409986088117
17790.229598598875,15765.699279628401,2024.5303189704723,-52.058489530856605,24.6074208955809,0.43325100295444324
17559.224828750088,15514.024557699046,2045.2002710510412,-51.45314074456837,24.672886947248962,0.43683798212034425
17332.01130219159,15266.309837153345,2065.701465038244,-50.769781718779996,24.73782547385663,0.44043119856601115
17108.593033347723,15022.567944685974,2086.025088661749,-50.08423350141675,24.802147314949643,0.4440232997525082
16888.780014202257,14782.598397870213,2106.1816163320427,-49.335924227299984,24.865900267507186,0.44761743288994343
16672.588371795984,14546.433210657684,2126.1551611383015,-48.53359539412486,24.929008272167067,0.4512070800418854
16459.8779630653,14313.923139298033,2145.954823767266,-47.661092860013014,24.9915114642274,0.4547997499743963
16250.741126740317,14085.170957977347,2165.5701687629694,-46.760846610501176,25.053318005474686,0.45838407485424454
16044.976922249634,13859.959083649956,2185.0178385996783,-45.795653398454306,25.114470648780443,0.4619667450930793
15842.787851279852,13638.518788897942,2204.269062381911,-44.785406191855145,25.17489189742491,0.4655385864747032
15643.9016429251,13420.546539658404,2223.3551032666965,-43.709702179025044,25.234618289061558,0.46910556840588485
15448.48935832869,13206.244082807129,2242.2452755215622,-42.58704709687299,25.293590821929932,0.472663959289791
15256.134408619355,12995.172265314808,2260.9621433045463,-41.3896430852692,25.35184462784599,0.4762194152196204
15067.133188717322,12787.644177087623,2279.4890116296983,-40.12537433442776,25.40928546701055,0.4797648029051192
14881.303096993863,12583.454442742508,2297.848654251355,-38.78044341524219,25.465954638707416,0.483302667994105
14698.790982272552,12382.787338958145,2316.0036433144073,-37.34942192033486,25.521767287852498,0.486824390338062
14519.344805315195,12185.34433992582,2334.000465389375,-35.82975081276527,25.576774597586684,0.49033515058075383
14342.960197009324,11991.169042332169,2351.791154677156,-34.2447904926521,25.630888527421977,0.4938279628087241
14169.533973727903,11800.115415392374,2369.418558335528,-32.5880597577343,25.684143293914413,0.49730639077084865
13999.208380810687,11612.365944583837,2386.8424362268506,-30.829675639091874,25.73648748673888,0.5007648107795669
13831.703856666867,11427.606312152422,2404.097544514445,-28.949414535563847,25.78792761442463,0.5042061151907675
13667.244916873662,11246.082847465037,2421.1620694086255,-27.00153207454423,25.838433968180766,0.5076280216453004
13505.593521834282,11067.544103069535,2438.0494187647464,-24.973293414179352,25.88799624881641,0.5110321385748876
13346.91866335741,10892.165813652811,2454.7528497045987,-22.86896741300734,25.93660454260415,0.5144125005415556
13191.02416050136,10719.766128590667,2471.2580319106933,-20.666652428451926,25.984245137155312,0.5177731999520643
13038.04104004217,10550.447245019719,2487.593795022451,-18.397352129846695,26.030897973613975,0.5211046581243003
12887.696554546437,10383.980035358738,2503.7165191876984,-16.068156439570885,26.076547133256597,0.5244129573960227
12740.02834736429,10220.354641400816,2519.6737059634743,-13.689010415866505,26.12116893996921,0.5276915895561626
12595.155652245197,10059.735042536855,2535.4206097083425,-11.272999946238997,26.1647542065103,0.530943562697716
12452.925722879085,9901.934704957323,2550.991017921763,-8.79565060249297,26.207312522027166,0.534164575430571
12313.490871742597,9747.13251921149,2566.3583525311074,-6.290897197119193,26.248801404037764,0.5373568679425206
12176.581204862214,9595.038467240243,2581.542737621971,-3.6971981426759157,26.289226155774053,0.5405191421334314
12042.38498420538,9445.84473559003,2596.5402486153503,-1.0574607715461752,26.32858359891273,0.5436546858985728
11910.502718583473,9299.152758265778,2611.349960317696,1.6624554412410362,26.36683524675762,0.5467558060680503
11781.107713629206,9155.124451685962,2625.983261943243,4.491219957555586,26.404019608665777,0.5498277983421801
11654.128374548392,9013.71515460556,2640.4132199428336,7.404658497456694,26.44005806741227,0.5528623940843768
11529.52438229241,8874.841269806515,2654.6831124858945,10.410398910353251,26.47500806720234,0.5558642356882311
11407.31738628196,8738.556376049166,2668.761010232794,13.533766553053283,26.508802982474503,0.5588284383616208
11287.364622625624,8604.709007864492,2682.655614761132,16.746053847222356,26.54146969865532,0.5617587594953096
11169.830798420782,8473.458476908994,2696.3723215117884,20.067655052516784,26.572957876314952,0.5646525131206812
11054.458776457672,8344.556372279845,2709.902404177826,23.454580797086237,26.603312077086304,0.567509776876063
10941.353588732436,8218.097199022372,2723.256389710064,26.97855402330606,26.632525347751788,0.5703319178482871
10830.386215336363,8093.954948461828,2736.4312668745347,30.49044282620889,26.66060118769962,0.5731238086399881
10721.466590860946,7972.042425859867,2749.424165001079,34.128690771074616,26.687510560548237,0.5758706853084847
10614.662946375514,7852.41687756848,2762.246068807034,37.80135608500859,26.713260667436927,0.5785809943032846
10510.060148681257,7735.161988877883,2774.898159803374,41.556119242086424,26.737838370071355,0.5812489407548148
10407.651601706537,7620.287507528585,2787.364094177953,45.37801412763656,26.761264731630984,0.5838742895375043
10307.127367185412,7507.457584117376,2799.669783068036,49.275985473890614,26.783535719659316,0.5864601675922737
10208.674982835957,7396.885620873701,2811.789361962257,53.228538737341296,26.80463935432631,0.5889985620252691
10112.041006261505,7288.272184472963,2823.7688217885416,57.213159113249276,26.824570582245514,0.5914967732516389
10017.497928493396,7181.952864691699,2835.545063801697,61.17758438083547,26.84334411320759,0.5939481849835709
9924.667771924867,7077.467427549682,2847.200344375185,65.18003690658225,26.8609430777243,0.5963598406010406
9833.83675927525,6975.196489107921,2858.640270167329,69.19284615371726,26.877408115660874,0.5987271901242982
9744.449549294086,6874.463907160575,2869.9856421335107,73.24460919976264,26.89270639635795,0.601050772446166
9657.094131323887,6775.988175435541,2881.105955888347,77.32877683539846,26.906922513333313,0.603337028154086
9571.322205445387,6679.187551338786,2892.134654106602,81.44347372116317,26.919945075218962,0.6055756226876329
9487.456089575342,6584.521310445945,2902.9347791293962,85.6009731446029,26.93191774456257,0.6077829016030246
9405.167915955968,6491.520910258484,2913.647005697485,89.72728280416777,26.942682553083756,0.6099428907255412
9324.608025217456,6400.465181394903,2924.142843822553,93.81634111775202,26.952405802028796,0.6120694267212784
9245.510805019436,6310.948980231197,2934.5618247882394,97.91650668708462,26.96094095989369,0.6141493817431676
9168.18658585351,6223.418049524436,2944.768536329074,102.01532336599485,26.968426178505958,0.6161975214965703
9092.435335450871,6137.557137547624,2954.8781979032465,106.18683476933074,26.974743759908783,0.6181976099592091
9018.355270121774,6053.548645743892,2964.806624377882,110.33427727532398,26.979984410243315,0.6201583660242762
8945.743544554187,5971.109459026939,2974.634085527248,114.54265962167119,26.98408229521818,0.6220715936902819
8874.817011042782,5890.519713712344,2984.297297330438,118.72272514636279,26.98706021647313,0.6239321444020469
8805.231664534984,5811.393563669712,2993.8381008652714,122.9720621448505,26.988942285944788,0.6257545724005356
8737.19688427285,5733.954037183668,3003.242847089182,127.28809038492909,26.989695991388185,0.62752070754766
8670.462803757688,5657.960590699797,3012.502213057891,131.6905340888843,26.989346672591097,0.6292440974127756
8605.169242844964,5583.492681280714,3021.67656156425,136.1712602931002,26.98789821918,0.630913623903456
8541.204407213812,5510.517890986387,3030.686516227426,140.7139197204524,26.985393337563263,0.6325390680141136
