energy,prior,fidelity,mass,psnr,ssim_indices
37575.51989110779,37575.51989110779,0.0,0.0,26.026722727929197,0.5756853264439699
36515.512094958576,36515.074153557565,0.43794140100902873,-5.953213729197159,26.226173024411356,0.5837504837509876
35476.66837434111,35474.934142002865,1.7342323382446077,-12.04565814306261,26.425882414161247,0.5918746554019533
34459.782107330684,34455.92191689319,3.8601904374935336,-18.282625962077873,26.62562753877868,0.6000453148655237
33465.65742326403,33458.872358249406,6.785065014624148,-24.664159949636087,26.82516019740487,0.6082579307103222
32494.988537015022,32484.51263312942,10.475903885602428,-31.200941839633742,27.02423768244506,0.6165015290371945
31548.264609461297,31533.36761718092,14.896992280378448,-37.89901131228544,27.22260958871169,0.6247660357540509
30625.712972245376,30605.70012078604,20.012851459335852,-44.77185002420447,27.420019779036238,0.6330448336423262
29727.761177486664,29701.975670378262,25.78550710840154,-51.79021601003478,27.61616198868143,0.641324338183408
28854.49746829219,28822.32155217785,32.17591611433755,-58.94264551694505,27.81075230818629,0.6495936621974873
28006.091384245472,27966.945374797397,39.14600944807573,-66.24947529353085,28.003491552011294,0.6578444423218557
27182.36548228248,27135.71116630179,46.65431598068953,-73.74913427163847,28.19399967805164,0.6660640897089406
26383.207398519065,26328.54207872306,54.6653197960042,-81.42123322037514,28.38194403452122,0.6742451540271196
25608.69258662834,25545.556309428932,63.13627719941148,-89.26519400050165,28.566973881879356,0.6823763127868352
24858.504778074373,24786.477593324173,72.02718475019964,-97.2988435056468,28.74873571681114,0.6904458199701958
24132.700698996843,24051.40240204585,81.2982969509951,-105.51623900636332,28.926840774067667,0.6984355395245974
23430.929650435228,23340.019903453307,90.90974698192181,-113.90348269089009,29.10089968133425,0.7063337441415728
22752.588155102007,22651.758684146243,100.82947095576326,-122.49881597966305,29.270551858890926,0.7141255546932731
22097.25678436764,21986.233826046777,111.02295832086541,-131.30310223173,29.43542604707573,0.7218040223749179
21464.749085967083,21343.292188868603,121.45689709848,-140.30368670186726,29.595126316547606,0.729358478284229
20854.671018195324,20722.577868865475,132.09314932984825,-149.50538578743,29.749250985748105,0.7367756277878862
20266.569557923904,20123.668925030204,142.9006328936984,-158.92513484563096,29.89744149479474,0.7440416797986757
19699.96270490615,19546.116474283426,153.8462306227213,-168.59148053324316,30.039335761888488,0.7511463746128774
19154.660320649476,18989.760119682327,164.9002009671481,-178.53020292619476,30.17462559068774,0.7580794038343198
18630.11289612412,18454.07922353922,176.03367258490093,-188.70094432865153,30.303000916443178,0.7648296015785729
18125.76461673534,17938.545741969734,187.2188747656089,-199.12517744593788,30.424142418237214,0.7713887741654117
17641.18685485192,17442.751895605663,198.43495924625577,-209.8335407116101,30.537844012285696,0.7777517644738813
17175.998345900298,16966.34895985749,209.64938604280997,-220.86582801962504,30.64386107076956,0.7839093519622949
16729.739878420816,16508.893383832303,220.8464945885145,-232.22370429863804,30.74207015556542,0.7898534914607822
16301.576105391336,16069.577322290077,231.99878310125808,-243.92611271285568,30.832268148951943,0.7955800082827281
15891.301724106632,15648.206702106985,243.0950219996459,-256.0098044926708,30.91440670270647,0.8010890891123004
15498.059933867235,15243.946345243012,254.1135886242223,-268.42316811770434,30.988386476170177,0.8063712977977024
15121.582117431572,14856.541816800782,265.04030063078915,-281.2079396591289,31.05426016345732,0.8114268549933307
14761.119231994955,14485.257980269875,275.86125172508105,-294.29109683071147,31.11189724475851,0.8162483416243336
14416.165309463473,14129.6069943784,286.55831508507174,-307.78119025498745,31.161497410116258,0.8208313169264176
14086.143945002063,13789.018511908278,297.12543309378407,-321.6010726510722,31.203042890452387,0.8251717226358827
13770.536993361591,13462.977968982312,307.55902437927915,-335.7787569150969,31.236824277269474,0.8292664542692849
13468.776690092982,13150.932702246053,317.84398784692877,-350.292165122024,31.26285087485249,0.8331159029392401
13180.509102205473,12852.534325761038,327.9747764444338,-365.2119124766032,31.281536020838914,0.8367240485166464
12905.520878299478,12567.586681139106,337.9341971603713,-380.4493545681471,31.293070752182658,0.8400962867406835
12643.096714379748,12295.363031511544,347.7336828682029,-396.12808882186073,31.297769455286097,0.8432288391528117
12392.816815050119,12035.469886436536,357.34692861358184,-412.1630154607992,31.295845586716993,0.8461298455643499
12154.042366945616,11787.25283753076,366.7895294148562,-428.6008337329549,31.28763102413235,0.8487920017993579
11926.495118262876,11550.455266475516,376.0398517873598,-445.398897767358,31.27343167414423,0.8512267985386003
11709.316854275636,11324.197394063609,385.1194602120259,-462.6362921508844,31.25359391133997,0.8534364666575257
11502.634610378964,11108.61673418381,394.01787619515363,-480.3126272279769,31.228299283094167,0.8554203384522476
11306.142580270232,10903.411357990672,402.73122227956094,-498.275849199621,31.197977250633674,0.8571783324556446
11119.087358671832,10707.823072150617,411.2642865212155,-516.6269546365365,31.16284946496154,0.8587184074215496
10941.118151683073,10521.500959118353,419.6171925647201,-535.331847636,31.123291188856783,0.8600517796975007
10771.686613580765,10343.880490290683,427.80612329008204,-554.4803240679612,31.07951783849999,0.8611875655393358
10610.395745598822,10174.589706134431,435.8060394643907,-574.0726427879708,31.031905615661906,0.8621273653681069
10457.339510638249,10013.691201495698,443.64830914255015,-594.2825914332061,30.98070097867545,0.8628783964119195
10311.93103711913,9860.613979948452,451.3170571706785,-614.9957561829942,30.926171516067598,0.8634421350130258
10174.099964826124,9715.267917405296,458.8320474208293,-636.2977932555077,30.86861272992182,0.86382564037796
10042.959318928788,9576.76565711034,466.193661818449,-658.1698208720481,30.80829904908419,0.8640353865132081
9917.908792091283,9444.49150557982,473.41728651146354,-680.6718751575099,30.745517355257157,0.8640866437205217
9799.281068191836,9318.77713616979,480.50393202204526,-703.8205716405355,30.68043310541202,0.8639849890613087
9686.467306796416,9199.011621359445,487.4556854369714,-727.5829067176383,30.613318441037165,0.8637346589178785
9579.237888086747,9084.958536590077,494.27935149667104,-752.0379668004462,30.544346556958978,0.8633457445979241
9477.780752282852,8976.785469240927,500.9952830419235,-777.0758492930327,30.47370929090723,0.8628281769389421
9381.491009056866,8873.907137891638,507.58387116522863,-802.7979015476303,30.401581747175264,0.862185168484122
