energy,prior,fidelity,mass,psnr,ssim_indices
50864.40466427743,50864.40466427743,0.0,0.0,16.481324415896502,0.1389367206475435
46310.5237415773,46291.90222694542,18.621514631882242,-4.917641647072742,16.9091745452845,0.1465968721678364
42205.38756135436,42134.66423341938,70.72332793497802,-9.890184375675744,17.33133946890994,0.1544810997586797
38511.63521265522,38360.59949319101,151.03571946421212,-14.918922849814408,17.747041241395443,0.1625786221380112
35193.748332918745,34938.97424240135,254.7740905173909,-19.969296157825738,18.155525388191922,0.1708666416899276
32218.1783991778,31840.559990388345,377.618408789455,-25.03511677257484,18.556071543527136,0.1793318413647961
29553.410704605332,29037.719696610155,515.6910079951779,-30.079225873734686,18.948003010148284,0.18796159869363505
27169.904973233057,26504.37000462981,665.534968603247,-35.11864784620411,19.33069662910118,0.19672988835150973
25040.15780985274,24216.062678711096,824.095131141642,-40.17123143823119,19.7035838637914,0.20562307267525481
23138.740546223322,22150.04800518929,988.6925410340344,-45.263541502470616,20.066164304110966,0.21463317398821427
21442.220823443226,20285.222955928053,1156.997867515171,-50.409274084478966,20.418005618929882,0.22374068767664793
19929.142597372058,18602.135297909783,1327.0072994622756,-55.609652745202766,20.758742451714074,0.23292884721624463
18579.941313689254,17082.9228106831,1497.0185030061537,-60.87678911497642,21.088084772325566,0.2421797063547003
17376.874391419697,15711.276327059322,1665.5980643603748,-66.19896429043729,21.405818935255727,0.25148696408952204
16303.858287113235,14472.294775363016,1831.5635117502184,-71.57715936945169,21.711801896308106,0.26083015788231484
15346.417893667942,13352.45661540014,1993.961278267801,-77.01352202313137,22.00595602495897,0.2701981184011139
14491.567071173075,12339.530324996533,2152.036746176542,-82.49490380217321,22.2882685835041,0.27957557612347517
13727.713374804085,11422.499883657856,2305.2134911462294,-88.03097643051296,22.558783521443114,0.28894361848809047
13044.518983216874,10591.445174053748,2453.0738091631265,-93.6072856579558,22.81760105092271,0.29829958682566643
12432.812914445218,9837.481895133364,2595.331019311855,-99.22425576914975,23.06487308475902,0.3076367520822731
11884.46492963509,9152.65764352764,2731.807286107451,-104.88195919551072,23.300792871658437,0.31693889373346246
11392.27888819544,8529.8597480927,2862.419140102739,-110.57916131518141,23.525592686765417,0.3261900905362903
10949.900663329683,7962.735863705368,2987.164799624316,-116.33469504237291,23.73953430850115,0.3353893896749911
10551.72825332071,7445.625643961823,3106.102609358888,-122.14198588396539,23.9429075313084,0.34452319008825166
10192.813962146502,6973.472982983025,3219.340979163477,-128.0009740677051,24.13602695804083,0.3535801703002373
9868.802422326906,6541.776442555043,3327.0259797718636,-133.91821915573382,24.319219619929882,0.3625559756010011
9575.857496684113,6146.524718577702,3429.3327781064113,-139.88978534216585,24.4928251448041,0.37144338632546164
9310.59232777343,5784.134641583201,3526.4576861902274,-145.90816021164937,24.65719491466839,0.3802278230191076
9070.021435194525,5451.41074749209,3618.610687702435,-151.98129600389802,24.81268437661795,0.38890058527726595
8851.507799648489,5145.497815201506,3706.0099844469833,-158.1283141454478,24.95965257888175,0.39745955314962256
8652.722337460262,4863.84570094272,3788.876636517542,-164.35899559420068,25.09846069953372,0.4059046673633227
8471.608305390499,4604.17450878014,3867.4337966103585,-170.66596542512707,25.229467032456757,0.41422934475239903
8306.352072764603,4364.450994874789,3941.9010778898128,-177.04655309548252,25.35302470693292,0.4224224710985747
8155.347144340869,4142.856575762462,4012.4905685784065,-183.49947423108097,25.46947846149326,0.4304768176571341
8017.168862488763,3937.7620547989727,4079.4068076897897,-190.02175535052083,25.579163377580937,0.43838762087092004
7890.550668111678,3747.701099433577,4142.849568678101,-196.6153945751139,25.6824067914394,0.44614947382046505
7774.365016717982,3571.3544193063885,4203.010597411593,-203.27967452153098,25.779528957816396,0.4537600050161877
7667.608085973917,3407.536828648328,4260.071257325589,-210.01416890657856,25.87084174206611,0.46121882587048485
7569.384781650351,3255.1818663588115,4314.20291529154,-216.81773330256692,25.956644458834177,0.4685269948175644
7478.895137429572,3113.3269130084122,4365.568224421159,-223.6941120325937,26.037226993822173,0.4756822427042641
7395.423538455739,2981.1025968917957,4414.320941563943,-230.64370493064052,26.112868028105325,0.4826848443089317
7318.330519917296,2857.724381234131,4460.606138683165,-237.66127891017823,26.18383411294228,0.4895318284410383
7247.0434019195745,2742.4826742722785,4504.5607276472965,-244.74212327045097,26.25037602270783,0.49622295869599214
7181.048733636475,2634.7351805640674,4546.313553072408,-251.8855269473861,26.312733088916808,0.5027590373585813
7119.884161249474,2533.8984372699642,4585.98572397951,-259.0888462168514,26.371135655480494,0.5091410428806629
7063.133122894224,2439.4421952254656,4623.690927668758,-266.34632071752276,26.4258046358081,0.5153700584090303
7010.420177872729,2350.8833785345196,4659.53679933821,-273.65492559845734,26.47694917494533,0.5214491333454084
6961.407134162754,2267.7829579690124,4693.624176193742,-281.01095829078986,26.524766834355734,0.5273786592043357
6915.788398857029,2189.74096671819,4726.047432138839,-288.4108849330514,26.5694462530317,0.5331527462157973
6873.2870668503,2116.391660102163,4756.895406748137,-295.8532144094643,26.611166215903484,0.5387761269419999
6833.652344493874,2047.4004537368182,4786.251890757056,-303.33484296330425,26.65009507799152,0.5442518912848167
6796.656944475335,1982.4610537798221,4814.195890695513,-310.8518860865588,26.686391850584688,0.5495822262578086
6762.094154039058,1921.292398525337,4840.80175551372,-318.40057656560384,26.720206911267226,0.5547706499267523
6729.7757078320265,1863.6360996280912,4866.1396082039355,-325.9771454753354,26.751683023805363,0.5598174095367009
6699.530370318586,1809.254647647349,4890.275722671237,-333.5785834911512,26.78095481439744,0.5647261146464762
6671.201933998431,1757.9294170043106,4913.27251699412,-341.20321136934217,26.80814971414022,0.5694974179111805
6644.647644553917,1709.4586592814808,4935.188985272437,-348.84940157564415,26.833387535713037,0.5741338194206258
6619.73711784455,1663.6563767641455,4956.080741080405,-356.5165867597243,26.856780960616298,0.5786393577599914
6596.351155746817,1620.3510238049635,4976.000131941854,-364.20353015713044,26.87843614419937,0.5830147581444691
6574.380698508727,1579.384191528435,4994.996506980292,-371.90896170596534,26.898453291179813,0.5872627921920596
6553.72572659613,1540.6091190807358,5013.116607515394,-379.6312985646655,26.91692696023872,0.5913862298756069
6534.294577826584,1503.8897780154812,5030.404799811103,-387.3680572302983,26.933946031231688,0.5953888357093912
6516.003109171473,1469.0999550345705,5046.903154136902,-395.117494336213,26.94959409323289,0.5992719867505137
6498.773895119761,1436.1224205820058,5062.651474537754,-402.87873535491235,26.96395038999598,0.6030372315261799
6482.535471254853,1404.8479721398946,5077.687499114959,-410.65136612836795,26.97708975538521,0.6066870672622372
6467.221906523193,1375.1749568972311,5092.046949625962,-418.4341132953559,26.98908230676381,0.610224700997794
6452.772270814237,1347.0087489538432,5105.763521860395,-426.2253422435606,26.999994213362555,0.6136527600533689
6439.130414995736,1320.261324035998,5118.869090959738,-434.0232541638834,27.00988788201615,0.6169734840980525
6426.244413891947,1294.850589649322,5131.393824242626,-441.82586043108313,27.018822357592644,0.6201895906096567
6414.066286844054,1270.6999892961107,5143.366297547943,-449.6306626267615,27.02685351809912,0.6233031660649707
6402.551685782537,1247.7380657427025,5154.813620039835,-457.43472462470527,27.034034085936696,0.6263169949110091
6391.659418590263,1225.8978967664648,5165.761521823799,-465.23517466652265,27.040413823940877,0.6292338957689969
6381.351292097403,1205.1168759805332,5176.234416116869,-473.02947622860665,27.04603943971074,0.6320562403195171
6371.591871489165,1185.3364485276666,5186.255422961498,-480.8152011269849,27.050954931151626,0.634787302061326
6362.348163201641,1166.5017293975357,5195.846433804105,-488.5900749549619,27.055201963535094,0.6374298001090849
6353.589450388952,1148.5612220543464,5205.028228334606,-496.351845377023,27.0588199800028,0.639986159340954
6345.287173958718,1131.4666101168095,5213.820563841909,-504.0980961661262,27.061846184598068,0.6424584479699279
6337.414700769543,1115.1725045409626,5222.242196228581,-511.8266891120147,27.064315696914424,0.64484940840719
6329.947227912179,1099.6363275350793,5230.3109003771,-519.5358691365254,27.06626177432495,0.647161360304297
6322.861620993326,1084.8180871807012,5238.043533812625,-527.2239716416079,27.067715862655266,0.6493962512057063
6316.136227726618,1070.6801286176405,5245.4560991089775,-534.8893508650217,27.06870762931664,0.6515563902737112
6309.750828839363,1057.1870337055552,5252.563795133808,-542.5303868806659,27.069265040585112,0.6536440240441083
6303.686522095672,1044.3054405067278,5259.381081588945,-550.1455893017119,27.0694144323522,0.6556611578500119
6297.92562661939,1032.0039011560814,5265.921725463309,-557.7336336923181,27.069180667957422,0.657609935078196
