energy,prior,fidelity,mass,psnr,ssim_indices
74752.73976233823,74752.73976233823,0.0,0.0,16.482269470593927,0.27938306545526675
68371.17042465492,68345.0227902538,26.147634401111716,-4.619736834662035,16.904082513038617,0.2912750535669284
62609.1607193265,62509.76750127151,99.39321805498678,-9.322297724662349,17.31858692707583,0.30317381341464567
57415.4620981233,57203.006566899196,212.4555312241069,-14.091774856555276,17.724734631432103,0.31503653830874595
52741.448714001,52382.73028302073,358.7184309802714,-18.95285041205352,18.121484444527603,0.3268134632409216
48541.15557693433,48008.95440560472,532.201171329607,-23.95782325952314,18.50781711701981,0.3384475929877948
44771.30498033498,44043.772283307146,727.5326970278338,-29.14375350048067,18.88275212093064,0.3498906124055605
41391.407236520376,40451.48553544498,939.9217010753916,-34.488157866406254,19.245363302006577,0.36110469297212244
38363.73023400789,37198.603611611165,1165.1266223967268,-40.005066143523436,19.59479711594459,0.37205096368106116
35653.337169602164,34253.912385473115,1399.4247841290514,-45.682763263059314,19.930280282342146,0.3826987374602804
33228.07384327546,31588.498173553005,1639.5756697224522,-51.53038692654809,20.251136670994914,0.39302052925287717
31058.46488701925,29175.68339192194,1882.781495097311,-57.52994981006486,20.556804920533516,0.40298736340921915
29117.578644106856,26990.919891131984,2126.658752974872,-63.6501250503934,20.846841803454534,0.41258429308318556
27380.95434873206,25011.748604849447,2369.2057438826123,-69.8993097677594,21.120928696401823,0.4218017563522168
25826.472379397655,23217.70708937593,2608.765290021725,-76.29362633766141,21.378871009510544,0.43062430009945857
24434.212490536724,21590.226553821976,2843.9859367147483,-82.8364269696176,21.620603160019158,0.43904589078089457
23186.29041260275,20112.50076607595,3073.7896465267972,-89.52352177031571,21.846186702044502,0.44707140669817585
22066.712906489596,18769.37130217495,3297.3416043146476,-96.35599549120525,22.055796444698426,0.4547031651390267
21061.212898315265,17547.194174484946,3514.0187238303197,-103.33943394134985,22.249717647068202,0.4619430503257646
20157.09559510416,16433.71461054678,3723.380984557381,-110.48127947014291,22.428340940702768,0.46879728782419045
19343.089226449112,15417.947036721409,3925.142189727703,-117.78758995252429,22.59214434058662,0.4752745259092746
18609.213752953023,14490.069787411197,4119.143965541824,-125.26632434601197,22.741679515290073,0.48139035558340004
17946.63535027745,13641.299713057277,4305.335637220176,-132.9344839528785,22.877557102445124,0.48715360427251
17347.5391379499,12863.780602183953,4483.758535765948,-140.78955119778402,23.000432819580045,0.4925788276360393
16805.02206348251,12150.497564051542,4654.524499430967,-148.8357914108201,23.11099851405836,0.49768036264668886
16312.98824967358,11495.185738651122,4817.802511022459,-157.05690646672156,23.209962938589275,0.502469005245048
15866.04868290251,10892.244344696705,4973.804338205807,-165.44192770612426,23.298041882585775,0.5069614446502763
15459.451105972294,10336.678984699336,5122.772121272957,-173.97641560668126,23.375948100977403,0.5111695753763258
15088.990900344608,9824.022713620056,5264.968186724554,-182.64924070436973,23.44438581674323,0.5151063520285889
14750.946005066497,9350.280724006541,5400.665281059955,-191.45433566783322,23.504047126743973,0.5187857736930478
14442.013579367356,8911.8678880724,5530.145691294956,-200.4031850861502,23.555600737660647,0.5222203397724944
14159.274538011257,8505.58244235004,5653.692095661218,-209.4930405417108,23.5996869799725,0.5254230859772427
13900.133170450958,8128.550506061086,5771.582664389871,-218.71871958009433,23.636915091455364,0.5284060740485321
13662.286220345237,7778.195497964102,5884.090722381135,-228.081925429462,23.6678613025415,0.5311799080751901
13443.679567355626,7452.196359692689,5991.483207662936,-237.5830645209062,23.693070388858814,0.5337548873908817
13242.483343305305,7148.4638934971845,6094.01944980812,-247.22521637007594,23.713054752005867,0.5361409615454608
13057.063277102297,6865.114999994297,6191.948277108,-257.00017013563775,23.728291351832485,0.5383484721867653
12885.960171496316,6600.452824432968,6285.507347063348,-266.89451878884574,23.739223824384954,0.5403873905347464
12727.869576838992,6352.947162613253,6374.922414225739,-276.88875313848257,23.74626417297074,0.542268905121217
12581.622580191693,6121.214496655766,6460.408083535927,-286.9680924322456,23.749793390908252,0.5440016493220018
12446.172259503925,5904.005839093179,6542.1664204107465,-297.12425546586746,23.75016071567165,0.5455945730898096
12320.577185208746,5700.187960695593,6620.389224513152,-307.34731417137664,23.747688627163278,0.5470558420884687
12203.988227895567,5508.729535548722,6695.258692346843,-317.62624790670816,23.742672917897544,0.5483925249562973
12095.640962034098,5328.694453099942,6766.946508934157,-327.94908359542023,23.73538512725726,0.5496103985943478
11994.845357391085,5159.23107360527,6835.614283785815,-338.31294502771925,23.726073052105598,0.5507170209908382
11900.976704052602,4999.561367537379,6901.415336515222,-348.7175610853592,23.7149613604035,0.5517197896521583
11813.471122965177,4848.9766646338385,6964.494458331339,-359.15676612389507,23.702255037457185,0.5526246718798152
11731.817612644183,4706.829873696843,7024.98773894734,-369.6229039071477,23.688141581174875,0.5534374329341564
11655.551661799047,4572.527762422013,7083.023899377034,-380.10926949308487,23.672791156885822,0.5541631444635295
11584.251555013328,4445.526819556764,7138.724735456564,-390.6117767759133,23.65635780679242,0.5548075485064673
11517.53419296378,4325.329232055782,7192.204960907999,-401.1283798609511,23.63898156902865,0.5553756548390196
11455.050853148285,4211.478638449787,7243.572214698499,-411.65715337265283,23.620789682962574,0.555872397298281
11396.483897984119,4103.556371743462,7292.927526240658,-422.197637474339,23.601897658979325,0.5563015955668265
11341.54295564472,4001.176688314034,7340.366267330685,-432.75105383899063,23.582410513261884,0.5566684387204462
11289.963055772063,3903.9842616120777,7385.978794159986,-443.31693056045333,23.562422111331568,0.556976286022235
11241.502421225476,3811.651575857466,7429.850845368011,-453.8944279915886,23.54201695647145,0.5572293742763079
