energy,prior,fidelity,mass,psnr,ssim_indices
201214.89053661635,201214.89053661635,0.0,0.0,16.47299275036334,0.2420941817316488
198936.81900245167,198935.89522075225,0.9237816994001816,0.4398141270503402,16.544567781281895,0.24354248600270056
196675.41977084253,196671.73849668851,3.6812741540319838,0.8948803159291856,16.61628445320133,0.24499894285660964
194431.0600628645,194422.80913532813,8.250927536364436,1.361738374485867,16.688138193101818,0.24646348200252563
192204.0477503846,192189.43735702746,14.610393357149931,1.8253711309225764,16.76012499777228,0.24793608816604906
189994.6090625301,189971.87274964023,22.73631288988386,2.3036381806305144,16.832240571722288,0.24941681967133378
187802.8954924687,187770.2903594506,32.60513301810938,2.8032623105682433,16.904481490300967,0.2509059412790105
185629.14825619152,185584.9552147764,44.19304141514096,3.312302816542797,16.976844802398922,0.25240356054543484
183473.51386140796,183416.039214771,57.47464663694489,3.8271173002722207,17.04932691862265,0.2539097326500424
181336.21012748856,181263.78560538605,72.42452210252975,4.358490220358362,17.121920787867037,0.25542457562879595
179217.3888519784,179128.37264033954,89.01621163887711,4.89571353935753,17.19462317087917,0.2569481889752712
177117.18539827978,177009.96209768014,107.22330059965131,5.462211880279938,17.267428571325645,0.25848050246060833
175035.7828645538,174908.76400957015,127.0188549836551,6.064509998657741,17.340333328488168,0.2600215778340023
172973.3449798915,172824.97030537852,148.37467451296618,6.703712045069551,17.41333242458311,0.26157139609528873
170929.8885448722,170758.62565515598,171.26288971622122,7.380300518940203,17.486421309465126,0.26313021953618315
168905.43909672528,168709.7821422594,195.65695446587537,8.065711513976566,17.559594445142036,0.2646981640165286
166899.96666248867,166678.43817953079,221.52848295788556,8.773238019435667,17.632847397666925,0.26627548006209706
164913.6641759003,164664.8146036531,248.84957224722848,9.502355873701163,17.70617506500962,0.2678616256843552
162946.62901311682,162669.04024588634,277.588767230484,10.25392539272434,17.779573171530014,0.26945712537187055
160998.86884828424,160691.15131331014,307.7175349741079,11.007476622238755,17.85303484515787,0.27106222385425616
159070.44626645476,158731.2409128589,339.2053535958672,11.779873837076593,17.926556911356126,0.27267724278761557
157161.21741818122,156789.19308123703,372.0243369441921,12.54400586016709,18.000135019370294,0.2743022724046354
155271.24119474774,154865.09593040228,406.1452643454425,13.338222522957949,18.073763786679244,0.2759371843462644
153400.54396301712,152959.00626718855,441.53769582857467,14.156246682367055,18.14743781692223,0.2775819420850118
151549.18378844231,151071.01130142302,478.1724870192957,15.002217944682343,18.22115259361244,0.27923696775931767
149717.14817195217,149201.13129923207,516.0168727200833,15.885085019021062,18.294902937680412,0.28090212547272153
147904.4047211235,147349.36282354026,555.0418975832224,16.74995663150912,18.368680096381677,0.2825775437526199
146110.87239773202,145515.65719398315,595.2152037488603,17.619543219247134,18.442480136168143,0.2842635507087966
144336.5416882504,143700.03105067043,636.5106375799899,18.519245648582,18.516297062618975,0.28596035515837004
142581.3892102277,141902.49486422178,678.8943460059318,19.468178678071126,18.590128270844573,0.287668216852805
140845.2967083656,140122.95714258,722.3395657856105,20.451903845823836,18.663967556936736,0.28938730954749986
139128.30142750524,138361.486275903,766.8151516022463,21.458710346574662,18.737807392015466,0.2911175432832052
137430.372315974,136618.081775699,812.2905402749798,22.48766584598343,18.811642738301188,0.292859805493066
135751.49822754305,134892.76558882077,858.7326387222766,23.567467183165718,18.885464997438653,0.294613840716553
134091.56403793377,133185.45183195712,906.1122059766438,24.697266359144123,18.959269915113875,0.2963798799682719
132450.4451571987,131496.0439513377,954.4012058610176,25.894063483952777,19.03304886316262,0.2981586912468379
130827.99885786045,129824.42372311013,1003.575134750324,27.12488668569131,19.106794703595394,0.29994998769233155
129224.08363575983,128170.4790401067,1053.6045956531352,28.43824161446537,19.18050072197402,0.3017539782416767
127638.64433478321,126534.18279971692,1104.4615350663003,29.798889295576373,19.254159856573942,0.3035710444013991
126071.61773120356,124915.50312842133,1156.1146027822315,31.179631484963465,19.327763128632025,0.3054009355888924
124522.81698503284,123314.27754878218,1208.5394362506572,32.57560202686,19.40130478070914,0.30724388753816695
122992.19837621045,121730.49438213588,1261.7039940745765,34.02833165618358,19.474775316638212,0.3091005814260563
121479.71749682887,120164.13829634519,1315.5792004836846,35.54601539912983,19.548167105492357,0.31097088140366863
119985.22867485868,118615.0886848928,1370.1399899658654,37.111816437449306,19.62147182308635,0.31285507644413574
118508.54895527125,117083.18900994862,1425.3599453226414,38.74654076810111,19.69468037856076,0.3147537398158578
117049.60514166467,115568.39586545968,1481.2092762049922,40.407366868283134,19.76778393241478,0.31666680673155617
115608.39061432006,114070.72716461477,1537.6634497052942,42.114137777418364,19.840773533654232,0.3185945941865445
114184.85724886954,112590.16706819087,1594.690180678668,43.825333375367336,19.913640240622005,0.32053724176503606
112778.82325341483,111126.55862635934,1652.2646270554847,45.57659089175286,19.98637965837277,0.3224947736987113
111390.16381557814,109679.80191568084,1710.3618998973006,47.33325226473971,20.058985583362446,0.324467852059583
110018.93809132285,108249.98851790561,1768.9495734172353,49.13356751482934,20.131446567483152,0.326456531913259
108664.86788408445,106836.86945021288,1827.9984338715672,50.956993049476296,20.2037552462261,0.32846142582303256
107327.90445609919,105440.41202529102,1887.4924308081684,52.82181578545715,20.275897920375073,0.33048203414338667
106007.81666108001,104060.41858100107,1947.3980800789452,54.74173246615101,20.34786900770054,0.3325199211464789
104704.63396380669,102696.93201236115,2007.701951445532,56.76494217614527,20.419654918520468,0.3345745207541464
103418.11497791598,101349.74671840512,2068.3682595108517,58.83470606489573,20.491251931278,0.33664739230621715
102148.27977018288,100018.90124588471,2129.378524298164,60.985558702930575,20.562645116316087,0.3387379055563439
100894.8768863898,98704.17744440596,2190.6994419838516,63.22059381031431,20.63382725822116,0.3408467055607584
99657.91176235313,97405.59653489133,2252.315227461811,65.50630704598734,20.704784106502622,0.3429733806079243
98437.07254542397,96122.87771061514,2314.194834808831,67.87478613536223,20.77551008156764,0.3451194923821847
97232.28411901752,94855.95430460843,2376.329814409088,70.33720837414148,20.845994100303887,0.3472846119830982
96043.43097752365,93604.74772720682,2438.6832503168216,72.91192652986501,20.916228569487274,0.3494693130016507
94870.31114629931,92369.06669951983,2501.244446779489,75.60357038091752,20.9862055526818,0.3516737463547223
93712.88621177628,91148.8993389877,2563.986872788572,78.39571804791922,21.05591751910463,0.3538988824853007
92571.03228157845,89944.14302570134,2626.889255877104,81.27969460305758,21.125348930131324,0.35614424159433006
91444.61472383415,88754.69348250705,2689.921241327104,84.24021472589811,21.194493233181788,0.35841041722882205
90333.49724224303,87580.41965092093,2753.077591322093,87.27925816824427,21.26333447136931,0.36069764722349734
89237.429564791,86421.10655989118,2816.3230048998284,90.40299435102497,21.331862026869416,0.36300606172767247
88156.38905941317,85276.72686211465,2879.662197298513,93.57331378606614,21.40006295255447,0.3653362316023019
87089.98086698675,84146.93225012209,2943.048616864663,96.84341740710079,21.467933111673382,0.36768871011009674
86038.30456459973,83031.81699595336,3006.487568646377,100.17223340482451,21.535454771152892,0.37006338046044246
85001.17229453877,81931.23603870494,3069.9362558338275,103.60205985349603,21.602620359117157,0.37246137041532323
83978.47512515773,80845.080654926,3133.394470231728,107.05658536337432,21.66941318640002,0.37488292160552034
82970.10597079911,79773.28302211018,3196.8229486889277,110.57099152103183,21.735827605687106,0.37732840798446254
81975.72879099504,78715.49863215457,3260.2301588404603,114.11629957304103,21.801848734668184,0.37979746174699186
80995.35707274974,77671.77214875848,3323.5849239912573,117.77785497409059,21.867468347510894,0.3822907877252528
80028.72787839542,76641.84977212691,3386.878106268518,121.51454787969124,21.932672462474578,0.384808439358528
79075.73363426825,75625.64110282231,3450.092531445953,125.34072961346828,21.997447155607514,0.38734994405456424
78136.33317605565,74623.12152580402,3513.211650251631,129.25343070557574,22.06177888627898,0.3899159635002598
77210.46257485251,73634.24252758583,3576.2200472666937,133.2330014121835,22.12565857149073,0.39250704565184596
76297.88038539495,72658.77770852202,3639.1026768729394,137.3184309041535,22.18907194439565,0.3951236924148748
75398.3368376227,71696.49238405563,3701.844453567065,141.53087797763874,22.252010832556806,0.3977663130746651
74511.83987781427,70747.40398735859,3764.4358904556843,145.84314141000505,22.314459528899175,0.40043544037897366
73638.06065794411,69811.20890088941,3826.8517570547,150.2816768300545,22.37641196122818,0.40313053045749303
72777.0495917165,68887.96095808501,3889.088633631482,154.86438197045936,22.43784462361323,0.405852283285532
71928.41997825833,67977.29076447178,3951.129213786552,159.62637061122223,22.4987526952477,0.4086003052039979
71092.37430824155,67079.4123731634,4012.961935078149,164.49865308316657,22.559116388646657,0.4113750462328452
70268.42872460141,66193.84604717404,4074.582677427379,169.51690750312991,22.618938316619534,0.4141776954146377
69456.70361941583,65320.7383690154,4135.965250400429,174.64822907093912,22.67820169845361,0.41700832339126714
68656.76193241509,64459.65307321164,4197.108859203457,179.8908448983275,22.73690258351642,0.4198677527872225
67868.83786030854,63610.84123274388,4257.99662756467,185.25895691284677,22.795012266269865,0.4227554208579929
67092.45638485043,62773.83437036928,4318.622014481157,190.78932687881752,22.852527427125825,0.425670780502694
66327.90867713613,61948.92550394773,4378.983173188399,196.52668402841664,22.909421204426916,0.42861333030982407
65574.61601759752,61135.55600977772,4439.0600078197995,202.4487803557713,22.965705099815388,0.4315833761168819
64832.861716028114,60334.010099260144,4498.851616767973,208.5431165320624,23.021345214094566,0.4345805582017718
64102.08722404626,59543.74696481868,4558.3402592275825,214.78517901152372,23.076345622273912,0.4376052861553455
63382.57586041157,58765.05306602443,4617.522794387133,221.18682693963638,23.130672857704955,0.4406570681375647
62673.87968349687,57997.490214469704,4676.389469027164,227.72043339000084,23.18433500420559,0.44373652510415607
61976.00664562776,57241.080473888025,4734.926171739735,234.38926301622996,23.237302920345087,0.4468435764153748
61288.58978981128,56495.44324545272,4793.146544358562,241.1701869510871,23.28958769816248,0.4499790851709859
60611.741509222775,55760.719114725835,4851.022394496944,248.05564660116215,23.34116039435768,0.45314229627485153
59945.18709047776,55036.61917424539,4908.567916232375,255.08401495876024,23.392033473823254,0.4563331925861938
59288.99111964658,54323.24906315446,4965.74205649212,262.22996301279636,23.442184734447466,0.45955183019839213
58642.86846763651,53620.289450764816,5022.579016871695,269.5519772655389,23.49161770495448,0.46279742908909843
58006.86620386707,52927.8345650865,5079.031638780576,277.0085228320968,23.540306709110514,0.4660716420094642
57380.49423627631,52245.368338607615,5135.125897668695,284.66851752242655,23.58825578325451,0.4693737166021381
56763.826667427886,51572.99448400626,5190.832183421623,292.47015134454705,23.6354459855366,0.47270367334963154
56156.71026745565,50910.53806042651,5246.17220702914,300.4781850501313,23.681878822628605,0.47605903319928305
55559.23345699761,50258.14575219937,5301.087704798236,308.6255024645361,23.727546186982647,0.47944200492272676
54970.90874784322,49615.26336966864,5355.64537817458,316.90471522838925,23.77243437005305,0.48284999556989777
54391.8243915003,48982.04681758898,5409.777573911318,325.2516588738654,23.816539425515195,0.48628457699431776
53821.568732343854,48358.010988883325,5463.557743460531,333.80666288753855,23.859847133438407,0.48974394554767264
53260.397419595785,47743.505786088215,5516.891633507573,342.47102335098316,23.902359403536927,0.49322999832796066
52707.90720465473,47138.04307809302,5569.864126561714,351.36098114182823,23.94406175704944,0.4967397216608114
52164.12862747913,46541.74733073835,5622.381296740782,360.38434601502377,23.984948547638176,0.5002753223195623
51628.70067519142,45954.159814096245,5674.540861095176,369.65967803788953,24.02501010318708,0.5038336645195636
51101.8014063269,45375.574844818795,5726.226561508106,379.08741257118527,24.064243068894903,0.5074160590047015
50583.13269782758,44805.5754045853,5777.557293242282,388.81597884197254,24.10262900127951,0.5110190135039815
50072.554840597804,44244.14087292258,5828.413967675223,398.7105712298944,24.140176923358382,0.5146444121444927
49569.983674323266,43691.07553669137,5878.908137631894,408.8996903966472,24.176873236958475,0.5182882861220731
49075.41538054653,43146.49658785368,5928.9187926928535,419.2336526555591,24.212721018862275,0.5219514829551644
48588.78169364755,42610.24613292694,5978.53556072061,429.7928101316502,24.24770839864935,0.5256319484281134
48110.003985103634,42082.34070846696,6027.663276636673,440.510694331344,24.281840694016807,0.5293306501555701
47638.91784445825,41562.525690869064,6076.392153589182,451.42713704315247,24.315108017490786,0.5330448852377897
47175.427910645754,41050.805147491345,6124.62276315441,462.49346522361157,24.347517967347187,0.5367755431989297
46719.33163469617,40546.8542320174,6172.477402678769,473.7853853981942,24.379050695439922,0.5405204774874864
46270.70713502883,40050.86721169619,6219.839923332641,485.29531654692255,24.409703566233492,0.5442791613406873
45829.254889127194,39562.465922327334,6266.788966799863,496.9698816831806,24.439473427297695,0.5480489945132919
45395.204030451496,39081.94435584802,6313.259674603475,508.8444112658326,24.468367793942896,0.5518307890380297
44968.13910929475,38608.84275369371,6359.2963556010445,521.0076265685202,24.496373551465457,0.5556221463669532
44548.06997587738,38143.171369967604,6404.898605909775,533.46830152435,24.523504798079014,0.5594236270269555
44134.66901986847,37684.63046791499,6450.038551953472,546.2140770112164,24.549746929047316,0.5632320901975261
43728.25967725292,37233.4955947837,6494.764082469223,559.2365680242656,24.575125998859026,0.5670498544867749
43328.54263618003,36789.57469638368,6538.96793979635,572.5174873296928,24.59961186998271,0.570871328797256
42935.303651734466,36352.50078375242,6582.802867982048,586.0603872806823,24.623232726006105,0.5746987206654512
42548.50319754337,35922.39519564402,6626.108001899342,599.8553706910461,24.645957730514255,0.5785263874793135
42167.98196419651,35498.916558286684,6669.065405909825,614.0141229630972,24.667819203291987,0.5823564521315125
41794.136940369106,35082.675514804374,6711.461425564732,628.4358627757756,24.688797980300627,0.5861841617749627
41426.49243661235,34672.98408294501,6753.508353667339,643.1885464413499,24.70892317291714,0.5900119160276086
41065.0301329748,34270.00524720532,6795.024885769481,658.2412151525205,24.728172173125223,0.5938351090910238
40709.557656172015,33873.38450228484,6836.173153887178,673.5831990880542,24.746558381241186,0.5976534790563002
40360.025212802066,33483.187759240674,6876.837453561395,689.2628500792489,24.76406863430388,0.6014627314078925
40016.54347267133,33099.44386929753,6917.0996033737965,705.2522849728703,24.78073211160243,0.6052639974872019
39678.91984694029,32722.03051725768,6956.889329682614,721.614176179195,24.796526983060495,0.6090528552116433
39347.28353624769,32351.01832796069,6996.265208287003,738.3336957528663,24.8114979916039,0.6128320372051625
39021.212879407285,31986.032672463214,7035.180206944073,755.3690378108586,24.82560194369138,0.6165950655063231
38700.87212244498,31627.170075649807,7073.702046795172,772.7845518013346,24.838905360967832,0.6203474250118283
38386.00861098794,31274.27706220129,7111.731548786648,790.5354305712972,24.851339500155763,0.6240782381966797
38076.63709209606,30927.24919511405,7149.387896982009,808.699255003361,24.862982181324178,0.6277947151982599
37772.71307312683,30586.16815119317,7186.544921933663,827.2272505407745,24.873767288575344,0.631486756851266
37474.16479262947,30250.8120028733,7223.352789756171,846.172233120451,24.883776381397574,0.6351601715940195
37180.96817142078,29921.33474530369,7259.633426117095,865.4629418603436,24.89293848084838,0.6388057983600914
36892.97462299919,29597.41182059126,7295.562802407924,885.0865872609429,24.90134100837293,0.6424302733631556
36609.798623764145,29278.791235336994,7331.007388427155,905.031098401465,24.90892294229452,0.6460263891403359
36331.84932057525,28965.773906433682,7366.075414141569,925.2464780177106,24.915764175180183,0.6495981775464825
36058.7983143982,28658.113354910754,7400.684959487441,945.7989468580345,24.921806321830804,0.6531402768076425
35790.49337142422,28355.55932925225,7434.934042171968,966.6252070176124,24.92713374769533,0.6566573861281304
35527.21205190812,28058.539254774085,7468.672797134036,987.7891864292906,24.93166992568306,0.6601400004934922
35268.32545356895,27766.21893570947,7502.106517859481,1009.2372099780187,24.935517729406808,0.6635955130249621
35014.24765993038,27479.20945988238,7535.038200047995,1031.0437006299035,24.938601356853273,0.6670137007529536
34764.337618064914,27196.671208091222,7567.6664099736945,1053.1474895240972,24.941008784278353,0.6704037121001652
34519.2784209407,26919.466641149946,7599.811779790753,1075.618277862348,24.94267273227009,0.6737552602675474
34278.44492855288,26646.824597351984,7631.620331200895,1098.4204200869135,24.94367231340924,0.6770758953650887
34042.34316829104,26379.35203258422,7662.991135706819,1121.6736851033347,24.943961777626743,0.6803561845076093
33810.05375738258,26116.0406106295,7694.013146753077,1145.2342703260365,24.94361327870642,0.6836039888417579
33582.27262303508,25857.653483330876,7724.619139704208,1169.2841796282737,24.942586877488715,0.6868100600050638
33358.401259903134,25603.54610901875,7754.855150884383,1193.7310816869722,24.94093426214723,0.6899815088489826
33138.46967891476,25353.746609917667,7784.723068997093,1218.6625535509374,24.938637163614462,0.6931116854886192
32922.27317820977,25108.098688885362,7814.174489324403,1243.922566848487,24.935725949941805,0.6962037827455226
32710.180448384664,24866.847990173443,7843.332458211223,1269.7620940306224,24.932198160218807,0.6992528046074306
32501.973902817066,24629.950215709,7872.023687108067,1295.8246146522579,24.928078263241208,0.7022620973119141
32297.321084277653,24396.869550362433,7900.4515339152185,1322.4507176720363,24.923362944024888,0.7052273352593605
32096.23669659337,24167.797544534536,7928.439152058831,1349.4066530638083,24.918063909069602,0.7081488709945426
31898.99485423229,23942.819810548215,7956.175043684072,1376.9299628207227,24.91219986029263,0.7110256611144871
31705.076241149814,23721.605075064985,7983.471166084829,1404.7742989312974,24.90577978073884,0.713857324290594
31514.85799006632,23504.3388204507,8010.519169615621,1433.16330988743,24.89881545778306,0.7166435710325234
31327.703546671735,23290.58110442404,8037.1224422476935,1461.912306212529,24.891312904311288,0.7193846684367634
31143.977284069737,23080.456526965034,8063.520757104702,1491.2167422873317,24.883292433838946,0.7220810232276408
30963.540051534346,22874.06550298851,8089.474548545838,1520.8142401057703,24.874749025815326,0.7247280814017225
