energy,prior,fidelity,mass,psnr,ssim_indices
20538.297107510243,20538.297107510243,0.0,0.0,26.03710714958387,0.6248842525134175
20012.759859189806,20012.538808212503,0.22105097730480433,-2.136883773484442,26.230926257335902,0.6325442108215239
19498.255711323676,19497.380558547273,0.8751527764028355,-4.374730886069301,26.42449042119081,0.6402565329047971
18995.245257677503,18993.297568843453,1.9476888340499396,-6.722480964344868,26.617515422137863,0.6480146393384544
18504.080802177075,18500.65790468638,3.4228974906932996,-9.163681348880345,26.809750227230175,0.655809859612862
18025.130771736174,18019.846983309202,5.283788426971954,-11.688064811220102,27.000906158192343,0.6636317665223389
17558.719048655967,17551.20688980535,7.5121588506138215,-14.3158064636591,27.190668841100685,0.6714699024903816
17104.914865260344,17094.82532252202,10.089542738323665,-17.04842269537039,27.378753096578855,0.6793146934475406
16663.85018856356,16650.852962772038,12.99722579152295,-19.89244363590842,27.564827532915412,0.6871583877262754
16235.51779122917,16219.302344325828,16.215446903341103,-22.847157340685953,27.748502282515524,0.6949870038381007
15819.988195110252,15800.262522602223,19.725672508030218,-25.9008345781549,27.92940518137233,0.7027885040375287
15417.262197075837,15393.755471827797,23.506725248039594,-29.080746139508847,28.107145334280524,0.7105495328793103
15027.171754981651,14999.631118446845,27.540636534806502,-32.392834544843936,28.281324511548355,0.7182545417651248
14649.695368336123,14617.888636502452,31.806731833670977,-35.818732757266844,28.45152056607311,0.7258836001201349
14284.692118433173,14248.40582451265,36.286293920521764,-39.371742004790576,28.617356390321653,0.7334289231563779
13932.088551980878,13891.129813273166,40.95873870771106,-43.04977298492304,28.77841224055731,0.740877157411588
13591.795346193361,13545.98998053871,45.80536565465039,-46.80944233275659,28.934323033774263,0.7482130072266683
13263.556177038075,13212.748992806244,50.80718423183048,-50.68254454930138,29.084622249636926,0.755424216618103
12947.2443642762,12891.2948526568,55.94951161939937,-54.65905290599767,29.228934219736487,0.7625007158876924
12642.552164208042,12581.341387190298,61.21077701774381,-58.79807392384828,29.366811957805048,0.7694243686399217
12349.23206573669,12282.652386097967,66.57967963872464,-63.042753034817,29.497913354254898,0.7761837399927739
12066.908666291547,11994.87263094934,72.03603534220719,-67.4587349966605,29.62180963482714,0.7827660152753319
11795.225746645157,11717.654202505033,77.57154414012459,-71.95150270072918,29.738287872627364,0.7891628069958115
11533.903311385988,11450.732995804025,83.17031558196325,-76.53421594035171,29.84698363580325,0.7953620387686927
11282.733221289369,11193.909362522585,88.82385876678394,-81.13283194581163,29.94765240399274,0.8013405606758611
11041.448433025005,10946.933860181867,94.51457284313808,-85.79442508972716,30.04001654666186,0.8070853805507664
10809.777624097538,10709.54104128303,100.23658281450894,-90.51280888669862,30.123931089494533,0.8125930064803611
10587.479522179232,10481.505917862236,105.9736043169957,-95.3267700372744,30.199151012691246,0.8178506313941315
10374.355995135755,10262.635666027592,111.72032910816314,-100.189285194072,30.265684633869895,0.8228558734321108
10170.145593743191,10052.68499510786,117.46059863533021,-105.08969417865592,30.323457090233994,0.8275984960269694
9974.549168056066,9851.363836307875,123.18533174819127,-110.03013189215562,30.372498336126927,0.8320769887507424
9787.14754601075,9658.258085782072,128.8894602286776,-114.98318638609635,30.412823518968402,0.8362812106469697
9607.544979134014,9472.97574884602,134.56923028799466,-120.00370342474343,30.444509647386504,0.8402024482816145
9435.463389296798,9295.238586989091,140.22480230770557,-125.03125958330929,30.46773904331605,0.8438527792874928
9270.774755087963,9124.928501489665,145.84625359829863,-130.05190893332474,30.482637046407316,0.8472204824716978
9112.961193389416,8961.531254212083,151.4299391773333,-135.06471911590052,30.489505920746435,0.85031347049058
8961.896247737339,8804.922711006118,156.9735367312197,-140.0336607627687,30.488589668828475,0.8531246098912123
8817.437139354637,8654.968797100684,162.4683422539534,-144.99792297700333,30.480144253503735,0.8556581734243807
8679.190161420342,8511.276854249934,167.9133071704075,-149.94186046574032,30.464442366602597,0.8579065774516103
8546.941072747153,8373.632495764099,173.3085769830545,-154.83915567718213,30.441876181323487,0.8598838571656171
8420.537632826516,8241.891015948393,178.64661687812193,-159.66907967071165,30.412826420835017,0.8615940236953893
8299.620768441719,8115.690315182947,183.9304532587717,-164.4448418748434,30.377651989308134,0.8630404722161606
8184.16595926732,7995.005256484395,189.1607027829248,-169.20169280730624,30.33669103276019,0.8642237464000507
8073.678219586036,7879.344425329838,194.33379425619808,-173.91006180020486,30.290365081259814,0.8651559772978663
7967.953728141825,7768.493610217365,199.46011792446043,-178.6085427167127,30.238993420694396,0.8658405629350372
7866.831596343448,7662.305397029629,204.52619931381952,-183.23958878788835,30.182980324296484,0.866297758490958
7770.068185244674,7560.51743906394,209.55074618073363,-187.80575725524977,30.122630929387945,0.866524071652668
7677.317469626729,7462.8097561133645,214.50771351336437,-192.25959196268377,30.05840777602604,0.8665372623391631
7588.538134366904,7369.097993859584,219.44014050732014,-196.61055734207184,29.99047308450629,0.8663320205521955
7503.405171581188,7279.098985577446,224.30618600374203,-200.7690888017314,29.919363201565066,0.8659326356102368
7421.754842519738,7192.6039465482045,229.15089597153408,-204.74295028531924,29.845309451349173,0.8653353718359243
7343.256484060451,7109.3280916362355,233.92839242421556,-208.52225732940133,29.768635018704988,0.8645594535277802
7267.806393356485,7029.119921120198,238.68647223628744,-212.1608096462951,29.689626102402087,0.8636055649080371
7195.355555049535,6951.972954501234,243.382600548301,-215.61670618148491,29.608478793724352,0.8624843558642133
7125.816300094556,6877.753598676522,248.06270141803347,-218.92676446948462,29.525514331541164,0.8612030572960689
7059.010303855252,6806.318305390675,252.69199846457659,-222.10240076026093,29.44094204945315,0.8597854185910997
6994.791948157929,6737.492651883678,257.29929627425133,-225.162166924325,29.354983718042952,0.8582267933823552
6933.043037672251,6671.168369238287,261.87466843396413,-228.09386098906543,29.26778434458308,0.8565400528907429
6873.6404631626465,6607.219611792071,266.4208513705752,-230.90739960144856,29.179519521655045,0.8547304039645697
6816.478140817222,6545.536416285629,270.9417245315938,-233.54168460038636,29.09034471567063,0.8528041051343429
