energy,prior,fidelity,mass,psnr,ssim_indices
36981.72071346411,36981.72071346411,0.0,0.0,26.024526845550625,0.5308743373077175
35876.88615645266,35876.43005795456,0.45609849810067715,-1.007163348433096,26.231500631836056,0.5394391120004624
34795.27500273016,34793.46991916921,1.8050835609475953,-2.052880420786096,26.439399781982434,0.5481309347281346
33738.032608858826,33734.01679971728,4.0158091415416886,-3.14670204318827,26.648069202318897,0.5569452975875108
32706.090161080938,32699.03637570849,7.053785372450444,-4.299521791544976,26.85734276558218,0.5658779215637134
31700.164052696167,31689.281637788245,10.882414907923934,-5.491319504391868,27.06702468033989,0.5749219450723336
30720.69635645582,30705.23329899422,15.463057461603878,-6.720129489724059,27.27693649880608,0.5840693881038167
29768.10581990453,29747.35054319628,20.75527670824827,-8.04629932291573,27.486858972112337,0.5933103373635967
28842.68923492783,28815.971521729283,26.71771319854635,-9.460353704111185,27.696582045020698,0.6026363218948546
27944.615320739795,27911.308161890724,33.30715884906987,-10.947634893585928,27.905880488234732,0.6120401661588581
27074.010406196114,27033.528035327345,40.482370868768356,-12.510102842294145,28.11452373630514,0.6215117571439998
26230.715077683806,26182.515503501436,48.19957418236944,-14.166274464078015,28.322262142758554,0.6310395902485969
25414.785534101404,25358.37031586972,56.41521823168376,-15.896164018166019,28.528824799814426,0.6406110007841049
24625.89251165775,24560.80623178095,65.0862798767991,-17.704724424838787,28.733900771646162,0.6502106377649441
23864.038562944064,23789.871391311506,74.16717163255927,-19.61505296191899,28.9371757598894,0.6598262510236453
23128.962204771102,23045.34575246203,83.6164523090717,-21.644865717593348,29.138341889772,0.6694455091443942
22420.429540907182,22327.035399332526,93.39414157465511,-23.778714770509396,29.33707769319271,0.6790500789347217
21737.959790941455,21634.502770764495,103.45702017696154,-26.061120363272494,29.533025223082987,0.6886247570214273
21081.11434090411,20967.34732680917,113.76701409494228,-28.450657812674763,29.725877179120126,0.6981613470795546
20449.52815661053,20325.243243112727,124.28491349780124,-30.987262009235565,29.915212245148677,0.7076464756866084
19842.70476587895,19707.730436965394,134.9743289135535,-33.60914275079267,30.100700065087416,0.7170582883145707
19260.157761181563,19114.355887469064,145.80187371249826,-36.37013514889986,30.281928691935928,0.7263743213446864
18701.23213262165,18544.500701761273,156.73143086037925,-39.200421627931064,30.458500101374412,0.7355817924156658
18165.340450911153,17997.600171929593,167.74027898156146,-42.18120118681691,30.62996658481253,0.7446603905684862
17652.032055885473,17473.24202490018,178.79003098529077,-45.23621513170656,30.795945825111932,0.7535958333789597
17160.199178324023,16970.338843984966,189.8603343390556,-48.405827999755275,30.956065167816288,0.762374971688253
16689.3700521586,16488.44410568167,200.9259464769305,-51.698692010802915,31.10994581461795,0.7709796358560768
16238.838796786064,16026.874504904528,211.96429188153488,-55.11525082789012,31.25719079270099,0.7793940973894588
15808.326630100799,15585.371348271003,222.95528182979697,-58.67252496734727,31.397431588217923,0.7876019198887043
15397.141375133735,15163.269070953924,233.87230417981138,-62.39709778659744,31.530346217744615,0.7955930199214384
15005.001669590463,14760.304348525855,244.6973210646076,-66.28965727458126,31.655570765423228,0.8033530311450425
14630.9769975297,14375.569139612186,255.40785791751532,-70.37242241739295,31.772888744018356,0.8108767488416134
14274.842693905992,14008.848430001368,265.9942639046232,-74.64584025245858,31.882023800530558,0.8181499608584759
13935.698293312518,13659.259492580182,276.43880073233555,-79.09482342685806,31.982797142472474,0.8251685281077662
13612.860028808136,13326.125108042987,286.7349207651493,-83.75057117722463,32.07500852551163,0.8319194035804068
13306.072733763776,13009.206786844867,296.86594691890963,-88.6416540282371,32.15860877054873,0.8384014671908259
13014.577574599462,12707.755153262282,306.82242133718046,-93.7722412069852,32.233494014466125,0.8446141099582892
12737.525472692043,12420.925238088075,316.60023460396735,-99.16013187021599,32.29964751205782,0.850551785784635
12474.180093509023,12147.984317547533,326.1957759614913,-104.79440734628588,32.35712618278754,0.8562127418753835
12224.255130032689,11888.651247860047,335.60388217264176,-110.71223395419656,32.40591698061539,0.8615938275061161
11986.90919594077,11642.083232151492,344.82596378927974,-116.89183092303574,32.446166268960745,0.8667011273917694
11761.844306171295,11407.989656652795,353.8546495184999,-123.3679850337503,32.4779142352247,0.8715277000836471
11548.337467317078,11185.635807452403,362.70165986467515,-130.11312495614402,32.501447528511996,0.8760816711075283
11345.804516414177,10974.456642946065,371.34787346811265,-137.15331076501752,32.516827787366566,0.8803551164212413
11153.998202751412,10774.192903143057,379.80529960835446,-144.44526839759783,32.52436369819355,0.8843543691612749
10972.53603379679,10584.465215794897,388.07081800189405,-152.09468368257512,32.524243770772486,0.8880811337813901
10800.879456966191,10404.747092587973,396.13236437821774,-160.063266518584,32.516879912858045,0.8915468743676223
10638.456336455802,10234.43670395797,404.01963249783125,-168.37877743455465,32.502499391598455,0.8947539208669792
10485.05341634528,10073.355603151473,411.6978131938063,-177.00532630670932,32.48153654320956,0.89771595528964
10340.416232550524,9921.19535733053,419.2208752199923,-185.93982567964122,32.45424593800734,0.9004303852616088
10203.657818515749,9777.128331865926,426.5294866498225,-195.19540431452333,32.42113309478127,0.9029175887275058
10074.714517116581,9641.025038877922,433.68947823865915,-204.77901656305767,32.382454496195614,0.9051729243432848
9952.955441338863,9512.301232766364,440.6542085724995,-214.81134441989707,32.33867757880267,0.9072225300488418
9838.065903044646,9390.591678236724,447.4742248079222,-225.22152382024797,32.289971914897905,0.9090546447150264
9729.809579741539,9275.691140684661,454.11843905687755,-236.06464922611485,32.236897741433545,0.9107073367928992
9627.848598370865,9167.219568711178,460.6290296596868,-247.26414349925471,32.179563994765296,0.912158602553581
9531.643170085112,9064.667355781887,466.9758143032252,-258.82958838363993,32.1184475730895,0.9134436948949715
9441.276474654127,8968.05509930816,473.2213753459667,-270.8411866261158,32.053566310015725,0.9145411358141996
9356.17238222834,8876.849137147323,479.3232450810176,-283.18298032935127,31.985550961392846,0.9154888073178009
9276.330062837033,8791.00270467477,485.3273581622639,-295.959115372767,31.91428635470878,0.9162646174942332
9200.770071574016,8709.54382323594,491.22624833807726,-309.0341536766209,31.840533315289008,0.9169097045369705
9129.695914589993,8632.664584276772,497.0313303132214,-322.389382120542,31.76412416476166,0.9174053699803731
9062.48101538595,8559.74726399605,502.73375138990104,-335.9940852437867,31.68568992513159,0.9177841771553431
8999.292841490447,8490.945502310684,508.34733917976286,-349.90760691592004,31.60510686863958,0.918032328217086
