energy,prior,fidelity,mass,psnr,ssim_indices
59939.79642921589,59939.79642921589,0.0,0.0,16.49793395114942,0.178842505261503
59234.6379854595,59234.35268280561,0.28530265389029236,-0.41812660280265845,16.57081480330516,0.1806604727920498
58534.56162014676,58533.42461255428,1.1370075924788257,-0.8274318808544194,16.64386744724009,0.18249640606459497
57839.63443287489,57837.08589059509,2.548542279798214,-1.2340048332116567,16.71708898719382,0.1843504386083434
57149.950336868416,57145.43708652006,4.513250348356668,-1.6471319209376816,16.790477504405295,0.18622266067679002
56465.605837178744,56458.58175475936,7.0240824193810685,-2.0670751835859846,16.864029162720445,0.188113036547375
55786.644412461166,55776.570615162556,10.073797298610518,-2.4835594961768948,16.937741815692767,0.19002137094804908
55113.221771426484,55099.56679357477,13.654977851712397,-2.901675033805077,17.011612437206097,0.19194797016333523
54445.3801044716,54427.620892009305,17.75921246229463,-3.322445964542567,17.085638864287226,0.19389301843691206
53783.1094761659,53760.72999742256,22.379478743339778,-3.754010493241367,17.159816757747173,0.1958561295663905
53126.43104910468,53098.923255087786,27.507794016895517,-4.187323320904397,17.234145660011414,0.19783796762140923
52475.378832499184,52442.242308509885,33.136523989300386,-4.615476434206357,17.308621298041626,0.1998384897584405
51830.03891629632,51790.781480782796,39.257435513523724,-5.05029288805963,17.383238041571808,0.2018569208665005
51190.44347618067,51144.58240151351,45.86107466716153,-5.489811714694952,17.45799449863728,0.20389376359638653
50556.58464379493,50503.64457077402,52.940073020910624,-5.9326223023817874,17.532887951434773,0.20594958195484303
49928.5221303252,49868.03747026967,60.48466005552212,-6.383673916672706,17.60791661734021,0.2080239714156383
49306.25448350869,49237.76772169587,68.4867618128204,-6.837995844733086,17.683075336957728,0.210117273544732
48689.79126047094,48612.85390784442,76.93735262651755,-7.294816249326686,17.75835840502822,0.21222864783744114
48079.21163410196,47993.38453409401,85.82710000794958,-7.752331461160793,17.833762361220252,0.21435827451510212
47474.50963064659,47379.362518620066,95.1471120265233,-8.202522879902972,17.90928338167616,0.2165057273069414
46875.59447934694,46770.70488651166,104.88959283527781,-8.653997557164985,17.984915607584572,0.21867106281089843
46282.55713505631,46167.51193996889,115.04519508741718,-9.12495907615812,18.060653109919468,0.2208542128827591
45695.37433838781,45569.76977043148,125.60456795633017,-9.605733097196207,18.136492541137127,0.2230558075962353
45114.06775081152,44977.508702759216,136.559048052301,-10.089607247587992,18.212431334368812,0.2252754918843958
44538.670768494594,44390.77175366998,147.89901482461502,-10.57484556743293,18.288464998090777,0.22751288769289643
43969.18659514691,43809.570922540624,159.6156726062805,-11.057160851123626,18.364588429232676,0.22976768937764422
43405.59763729722,43233.899380560724,171.69825673650072,-11.557477706097416,18.44079589055206,0.23204020959433982
42847.977726515106,42663.83996754045,184.1377589746559,-12.063288008779637,18.517082169056952,0.23433055358920987
42296.3390593815,42099.41653645373,196.92252292776857,-12.584777258016402,18.59344769563082,0.23663911362076162
41750.6514104163,41540.60770925938,210.04370115692308,-13.110254782368429,18.66988728792261,0.23896520461235346
41210.91118550092,40987.41848358432,223.4927019165955,-13.628125943505438,18.74640032638516,0.24130927787577047
40677.08375657304,40439.82527727023,237.25847930280997,-14.134941130250809,18.82297747094362,0.24367267505066278
40149.122817305484,39897.788017525556,251.33479977992974,-14.653545549546834,18.899614229718587,0.24605398600532588
39626.961549505104,39361.250348264555,265.7112012405508,-15.171481893179589,18.9763031543997,0.2484538944655775
39110.590261888254,38830.2102917854,280.3799701028554,-15.693532982215402,19.05303789567109,0.2508707575687117
38599.95862443854,38304.62606841648,295.3325560220628,-16.21768576609611,19.129815029715683,0.2533052073297631
38095.12025418362,37784.56022387518,310.56003030843283,-16.73481773317326,19.206625158163284,0.2557562630031713
37596.06357840085,37270.01273697315,326.05084142769584,-17.236420496265055,19.28346701303842,0.2582244431113931
37102.737808265454,36760.94132091629,341.79648734916753,-17.717584622296272,19.36033592429777,0.26070979027915375
36615.162560790326,36257.37393322905,357.7886275612743,-18.203451718727592,19.437219679314424,0.2632120652813818
36133.288532900704,35759.271028601324,374.01750429938323,-18.681251319881994,19.51411112667959,0.2657307112101223
35657.1046382221,35266.62929413688,390.4753440852203,-19.180290061980486,19.5910057121424,0.26826629093797977
35186.580221329416,34779.428203634496,407.15201769491904,-19.704977219109423,19.66789886447722,0.27081859911320666
34721.660544824306,34297.62185797835,424.0386868459539,-20.249817743126187,19.74478397481075,0.273387668082587
34262.32509236412,33821.19791431626,441.12717804785495,-20.789808144952985,19.82165238495259,0.2759734395833096
33808.51648302307,33350.10785621509,458.40862680798796,-21.342932955507422,19.89849914916732,0.27857496250452124
33360.24062929987,32884.36301348681,475.87761581306654,-21.889020340167917,19.975322092448213,0.28119141408321857
32917.53754311648,32424.018010243963,493.51953287251837,-22.44957336409425,20.052116475297442,0.2838225820766396
32480.36670452318,31969.039053793942,511.3276507292406,-23.010133347517694,20.128874759368163,0.2864691769166468
32048.722896690415,31519.431899916075,529.2909967743398,-23.59621502511436,20.205582451794697,0.2891313092342304
31622.46027184218,31075.054209314305,547.4060625278752,-24.199940597391105,20.2822341371875,0.29180868172920954
31201.573529915484,30635.912406556326,565.6611233591582,-24.834125058419886,20.358815355056233,0.2945007616433611
30785.954694984553,30201.90437048751,584.0503244970419,-25.472438865705044,20.435325177642518,0.2972079516850391
30375.684417638207,29773.122422885102,602.5619947531052,-26.126356448367005,20.511748167988344,0.2999298321928074
29970.691770885674,29349.50009202184,621.191678863832,-26.784895068209153,20.58808320781024,0.30266611535167165
29570.935676453417,28931.004603367583,639.9310730858356,-27.451875415397808,20.664319869034486,0.3054157848450374
29176.374237093543,28517.59718393005,658.7770531634916,-28.108240180212306,20.74045100524885,0.30817794829768325
28786.97559770328,28109.261504813803,677.7140928894753,-28.77619306409906,20.816463907247105,0.3109531576803965
28402.667714828895,27705.92488170581,696.7428331230841,-29.438329546595924,20.892354466447117,0.31374036504590846
28023.370811659235,27307.524741470548,715.8460701886859,-30.126657284097746,20.968114263257686,0.3165400281475221
27649.028308472334,26914.00051785589,735.0277906164448,-30.864708446184522,21.043736189250456,0.3193512790965101
27279.62769082945,26525.35815217702,754.2695386524293,-31.6311679634382,21.119205977606935,0.3221738281464001
26915.133607178042,26141.556888379666,773.5767187983781,-32.40039504339802,21.19451294760362,0.32500740373338494
26555.582564438468,25762.650886484207,792.9316779542594,-33.18192501418525,21.269646460701274,0.32785240961144985
26200.94851632985,25388.616742620743,812.3317737091044,-33.9813742787228,21.344603614221157,0.330707947487001
25851.125988809432,25019.361354968525,831.7646338409081,-34.81627761934942,21.419360134071578,0.33357342570334964
25505.9906365576,24654.751877074268,851.2387594833303,-35.673840684161405,21.493914722488224,0.33644987517410924
25165.60265229928,24294.86778617841,870.7348661208712,-36.56308244836691,21.56824091224653,0.33933585222021595
24829.842201477608,23939.587253977086,890.2549475005202,-37.4446971793659,21.6423376945067,0.34223204454445627
24498.655029023947,23588.864709954458,909.7903190694886,-38.3359275245748,21.716185077916272,0.34513713447912125
24172.02365448908,23242.6855126131,929.3381418759791,-39.21315753014642,21.789783943852918,0.34805090429779967
23849.98874391379,22901.1057095223,948.8830343914886,-40.0945253152895,21.86311134696586,0.35097350474636935
23532.449643261625,22564.01921766493,968.4304255966953,-40.992042628640775,21.936173155434034,0.35390408225595954
23219.426967384505,22231.4572741506,987.9696932339037,-41.906522880119155,22.008944085381394,0.35684262819593826
22910.740020707995,21903.24596709743,1007.4940536105655,-42.83060935414687,22.08142181684846,0.3597888231157509
22606.479657201926,21579.480017105972,1026.999640095955,-43.750568132978515,22.15357665542086,0.3627414072804389
22306.533698197127,21260.045872153318,1046.4878260438093,-44.68114101655374,22.22540261631579,0.3656983406683622
22010.897883584872,20944.95312447529,1065.9447591095804,-45.6238577812328,22.296883314529552,0.3686604146869166
21719.43128879505,20634.05781093803,1085.3734778570224,-46.58264363766648,22.368005731024173,0.3716252986564734
21432.224762677146,20327.459341004505,1104.7654216726405,-47.53451219535782,22.438743381461308,0.37459458254247985
21149.14909435363,20025.03357019202,1124.115524161611,-48.513788759635645,22.50909729312593,0.37756595107998164
20870.265596210065,19726.850218851643,1143.4153773584205,-49.5055736839422,22.57905619683603,0.3805425346878751
20595.395768727092,19432.731118814707,1162.664649912384,-50.54848448267148,22.648603966728977,0.3835217747466138
20324.586346843043,19142.73169979059,1181.854647052452,-51.570632323491736,22.71772115594139,0.38650493225156235
20057.790961518953,18856.80238422303,1200.9885772959242,-52.622021397561184,22.786392374959156,0.38948822015217877
19794.953984722186,18574.898271250546,1220.0557134716407,-53.63374795789423,22.85461158987571,0.3924735614127064
19535.927509753696,18296.86836478877,1239.059144964925,-54.662706808783696,22.922359450946264,0.39545882521551246
19280.7384565521,18022.745478419147,1257.9929781329513,-55.65935940138297,22.989623618749874,0.3984444845379544
19029.31769034429,17752.4649604101,1276.8527299341924,-56.675891470571514,23.056389056942255,0.40142944548389603
18781.619180897345,17485.97873687299,1295.6404440243568,-57.669247805242776,23.12263431058564,0.40441313687377783
18537.589873496556,17223.243256415142,1314.346617081413,-58.66320996967261,23.188343060852418,0.4073940876618356
18297.24424959283,16964.27337347249,1332.9708761203417,-59.62638586742105,23.253496867998397,0.4103712218831019
18060.551127372673,16709.049725647343,1351.5014017253297,-60.56851442500192,23.31807614070052,0.4133434336655349
17827.513171658946,16457.567476732995,1369.9456949259506,-61.52048903259856,23.382069956909888,0.4163111275707228
17597.994225992927,16209.702100579436,1388.2921254134908,-62.461933176760795,23.445452699052787,0.4192728081079123
17372.04646770708,15965.50438460555,1406.5420831015324,-63.412902201889665,23.508221579565244,0.4222304680413857
17149.432891053133,15724.73402130867,1424.698869744465,-64.34453873036546,23.570371859093946,0.42518138969382574
16930.289156949017,15487.539218355838,1442.7499385931794,-65.23811003517767,23.631892403815684,0.4281266722190633
16714.49362104555,15253.789718308133,1460.703902737415,-66.11542975511111,23.692765515577573,0.43106303810676555
16502.13493693369,15023.591285649069,1478.5436512846202,-66.96748651750386,23.75297639601817,0.4339923682048594
16293.072718636104,14796.796753021967,1496.2759656141377,-67.81011533217679,23.812509740850196,0.43691448635503044
16087.376187845714,14573.48696041468,1513.889227431033,-68.6578708862362,23.871323783827254,0.4398260131703
15884.897868981681,14353.514957692445,1531.382911289237,-69.5140345273685,23.92942317589946,0.44272899600582366
15685.669610746716,14136.911142721403,1548.7584680253133,-70.38941047922708,23.986759247628182,0.4456159800702398
15489.594850402473,13923.583905900568,1566.0109445019043,-71.29162579365948,24.043365779647804,0.44849314328341094
15296.595063275772,13713.45168751386,1583.143375761913,-72.20068994410394,24.0991843589567,0.45135328729147145
15106.79889778179,13506.647413277013,1600.1514845047764,-73.11536196402449,24.15425632458423,0.45420420393997946
14920.036047104757,13303.007489499498,1617.0285576052588,-74.0477306508401,24.208513173945434,0.4570364618897909
14736.311495582602,13102.534701635363,1633.7767939472403,-75.00301691119967,24.26197553848536,0.45985702546007223
14555.581533712824,12905.190378841637,1650.391154871188,-75.97337797669752,24.314597465043313,0.46265996686971134
14377.878368569114,12711.006517497448,1666.871851071666,-76.97386111310334,24.366397611971887,0.46544783236070425
14203.086456372052,12519.869139814098,1683.2173165579536,-77.98278043969185,24.417317497154073,0.46821397328670633
14031.100962101471,12331.668071449712,1699.4328906517578,-79.02580049551034,24.467374658260866,0.47096400634425284
13861.932795571322,12146.406152974778,1715.5266425965444,-80.0589055319142,24.51652381772127,0.4736918032675386
13695.450167714635,11963.967205023278,1731.4829626913565,-81.12335844647896,24.564773778894843,0.47640166005487705
13531.737422559188,11784.40960419442,1747.327818364768,-82.17873224125651,24.612102682016378,0.47909083020917115
13370.694092103437,11607.678901113122,1763.0151909903134,-83.2725623321021,24.658505750220723,0.48175929494310016
13212.461242763215,11433.873955545863,1778.587287217352,-84.33844906462764,24.70399018227541,0.48440830105557225
13056.866648636747,11262.869491833439,1793.9971568033093,-85.42984171933495,24.748516625712686,0.4870329171554048
12903.980383297698,11094.694401310939,1809.2859819867588,-86.50416776858037,24.792103690974237,0.4896374972011321
12753.703266582812,10929.290687857507,1824.4125787253056,-87.59809996355034,24.83468091037762,0.49221294205322524
12605.924329716845,10766.505701432507,1839.418628284339,-88.65443237466388,24.876303562458393,0.4947666264267208
12460.627808939702,10606.355841434874,1854.271967504828,-89.71981567192415,24.916910245031314,0.4972883860938677
12317.771219628165,10448.77671285415,1868.9945067740139,-90.77411433735688,24.956568002091654,0.4997890573345456
12177.27301406996,10293.711141080117,1883.5618729898429,-91.86738595424686,24.995198716692006,0.5022573323380141
12039.206295171805,10141.205054815498,1898.0012403563067,-93.00405209453311,25.0328589344436,0.5047027482671698
11903.472267902562,9991.184669129945,1912.2875987726175,-94.21000216418179,25.069441435178664,0.5071122137411584
11770.206942466182,9843.759828094355,1926.4471143718283,-95.44308609170548,25.105009295567413,0.5094953620085036
11639.157978446237,9698.704720965005,1940.453257481233,-96.715630433755,25.13948661136179,0.5118435539291328
11510.40315701287,9556.065494621775,1954.3376623910947,-98.02166608283005,25.172919316444723,0.5141615454150161
11383.805879856147,9415.740031988538,1968.065847867608,-99.35918877628865,25.205238456726473,0.5164433794446311
11259.50447874116,9277.840301972781,1981.6641767683805,-100.73433675830893,25.236499960373354,0.5186918783944864
11137.287908374903,9142.176383290294,1995.111525084609,-102.135772104637,25.266661380623848,0.520904100989957
11017.233171133026,9008.80430276942,2008.4288683636066,-103.56057582185895,25.295767358489346,0.5230798332155152
10899.340183715865,8877.73302006568,2021.6071636501858,-105.01718751508452,25.323787961174062,0.5252208115290569
10783.483391040712,8748.84208729385,2034.6413037468633,-106.46080771859852,25.35072662876175,0.5273232501662269
10669.751773312091,8622.206618939037,2047.5451543730537,-107.89241525020043,25.376549105364,0.52938661684886
10558.02793624011,8497.720409351992,2060.307526888119,-109.29844146914547,25.401285879354717,0.5314119879889269
10448.361080021356,8375.43274674468,2072.928333276676,-110.68542280419206,25.424911791486643,0.5333996332221239
10340.746228224396,8255.340355839993,2085.4058723844023,-112.04726433593896,25.447485466059305,0.5353510492052583
10235.067493663802,8137.307736870332,2097.75975679347,-113.42256100640225,25.468956375277468,0.5372628053624963
10131.309996863769,8021.354713950258,2109.9552829135114,-114.79105520207668,25.48939836914692,0.5391413200191838
10029.313258121092,7907.271472501344,2122.0417856197478,-116.18517101820908,25.508726997932794,0.5409777872690107
9929.289770938862,7795.331157315094,2133.9586136237676,-117.53184660994157,25.527022604084962,0.542779943513818
9831.02319464872,7685.2479894846565,2145.775205164064,-118.87440442210936,25.54420324703065,0.5445367952423144
9734.64075840855,7577.227261827499,2157.4134965810517,-120.17013294518983,25.560396710080386,0.5462639731801111
9639.885968831086,7470.917667848464,2168.968300982622,-121.48483064200263,25.57544839718463,0.5479394925016187
9546.981470627838,7366.641683096454,2180.339787531383,-122.80317344387004,25.58950667148499,0.5495813578094623
9455.671379914018,7264.037036040563,2191.6343438734543,-124.09824615955586,25.602405305830555,0.551162534203438
9366.216915555306,7163.454009975006,2202.762905580299,-125.4212547770876,25.614315148251613,0.5527102289474803
9278.375745941674,7064.594271839967,2213.7814741017064,-126.73614535432716,25.62511600763701,0.5542036712418561
9192.275518152272,6967.60816104209,2224.6673571101815,-128.06093887239695,25.634947859140482,0.5556639175458077
9107.738907288462,6872.308969268269,2235.429938020192,-129.3646596102917,25.643693637401093,0.5570732508350912
9024.743409437206,6778.682830049105,2246.060579388101,-130.63966741740296,25.65146048310244,0.5584465322202782
8943.290704012645,6686.716883378344,2256.5738206343012,-131.89279960987915,25.658148463823636,0.5597664777788056
8863.502674861886,6596.564583229942,2266.938091631943,-133.13782314994023,25.663867641731034,0.5610488618405758
8785.254581048097,6508.05715811746,2277.1974229306365,-134.3653609521134,25.668566185254033,0.5622816092133791
8708.516269360913,6421.209860548241,2287.306408812671,-135.54127720514953,25.672256309028807,0.5634684794974831
8633.168765891032,6335.843640110643,2297.3251257803895,-136.73243317203014,25.6749635896265,0.5646075349986792
8559.3379262044,6252.149154563322,2307.188771641078,-137.9234182594373,25.67668289173051,0.5656969801659123
8486.848350683988,6169.885390539463,2316.962960144525,-139.16571973873943,25.677459730019354,0.566738602653463
8415.844980177226,6089.256440747092,2326.5885394301336,-140.4378378289839,25.677268106080856,0.5677287731481472
8346.00302817651,6009.883649495823,2336.1193786806866,-141.7683971720835,25.67613542056115,0.5686691881305388
8277.665557956334,5932.147166042052,2345.5183919142823,-143.11900877517473,25.674043299908227,0.5695574941937572
8210.472775414171,5855.646464188717,2354.826311225454,-144.46472262835596,25.67104990338077,0.5703994932132814
8144.7354800094745,5780.724592146148,2364.010887863327,-145.8493116531754,25.6670936347956,0.571184298007812
8080.227140764123,5707.13378677426,2373.0933539898624,-147.23648591796518,25.662321007911206,0.5719312336192786
8017.091829855399,5635.048574588167,2382.043255267232,-148.65900015564694,25.65660189935691,0.5726181838423958
7955.178154920575,5564.261117168668,2390.917037751907,-150.11900780236465,25.650087475190148,0.5732686091552767
7894.556850959236,5494.915255557228,2399.641595402008,-151.5733135745686,25.642682761008338,0.5738605427997143
7835.082504322464,5426.772503099691,2408.3100012227733,-153.08327653456945,25.63450527194537,0.5744177072105919
7776.94766973692,5360.132261016149,2416.8154087207713,-154.5511391988548,25.625466930615364,0.574918712923459
7719.881847376063,5294.597203751537,2425.2846436245263,-156.0495928732562,25.615720198231294,0.5753863982360315
7664.066959330463,5230.483914012056,2433.583045318407,-157.49153895923519,25.605153563604848,0.5758005985368524
7609.122794403992,5167.283087801633,2441.839706602359,-158.89953018202505,25.593903405188843,0.5761784426834461
7555.48275843081,5105.526152713302,2449.9566057175075,-160.27797167227254,25.581838775397728,0.5765018926109512
7502.771817814286,5044.767626383527,2458.004191430759,-161.60004301600566,25.56909286256897,0.5767910817359754
