energy,prior,fidelity,mass,psnr,ssim_indices
83336.64290076285,83336.64290076285,0.0,0.0,16.471341287673575,0.1574384975361774
75900.55237003467,75870.11555039868,30.436819635979468,-9.776695627137087,16.900677352043225,0.16526048856691802
69201.67172297892,69086.10366907027,115.56805390864399,-19.819850687868893,17.324692104526992,0.17331614938281606
63178.39471230908,62931.65165106798,246.74306124109478,-30.162633389467373,17.742655341127847,0.18159593329164359
57772.278739723355,57356.16927703962,416.1094626837383,-40.82697487878613,18.15385832857448,0.19009615645381192
52928.090084686846,52311.513020660765,616.577064026082,-51.82699133770075,18.557627052013196,0.1988034531545776
48593.873819472115,47752.087504222494,841.7863152496245,-63.17849762784317,18.953329643234056,0.20770259499792001
44720.987028151074,43634.91666317031,1086.0703649807601,-74.86793242336717,19.34038299398197,0.2167808344185983
41264.13327633955,39919.71060713388,1344.4226692056661,-86.9118159658974,19.7182595254663,0.2260230766377509
38181.441504686714,36568.98918588254,1612.4523188041687,-99.31067882594652,20.086487841589538,0.23541790554026476
35434.260947621326,33547.91461721552,1886.3463304057998,-112.07906039070804,20.44465884008844,0.24494840160245135
32987.14575200448,30824.310666879526,2162.8350851249497,-125.24214122479316,20.792425325868827,0.25459828561292736
30807.75473428305,28368.60635757063,2439.1483767124223,-138.7545478719985,21.1295046782092,0.264352614577469
28866.737979170044,26153.762760704303,2712.9752184657423,-152.5892000569729,21.455670018985366,0.2741968230188146
27137.626871831486,24155.210132810655,2982.41673902083,-166.74435889313463,21.770751846743103,0.2841151915561937
25596.60816767587,22350.666632097746,3245.9415355781225,-181.22715271636844,22.07463659226597,0.29409005571710706
24222.371823821755,20720.024594149738,3502.3472296720156,-196.04589434550144,22.367258542680357,0.3041138625860054
22995.909398126645,19245.195061497638,3750.7143366290074,-211.1803431136068,22.64859825684625,0.3141721601897621
21900.301524803763,17909.92351910058,3990.378005703184,-226.61668696126435,22.918678837797657,0.32425025754587566
20920.54560502476,16699.660224426996,4220.885380597764,-242.34406250726897,23.177565643112146,0.3343358937185692
20043.352764715157,15601.390312770662,4441.962451944496,-258.35202371072955,23.425359575375488,0.3444175530475411
19256.959726477817,14603.461414310023,4653.498312167795,-274.6243079705164,23.662192229917267,0.3544867122449921
18551.00098603863,13695.492724531607,4855.508261507024,-291.1608822795097,23.888218675831308,0.36453232803747043
17916.342119843688,12868.23310745669,5048.109012386998,-307.9401039982913,24.103614595929194,0.37454278809721453
17344.954668324717,12113.463348619905,5231.491319704814,-324.9731939357007,24.308574001844107,0.38450700518307396
16829.767193511827,11423.858633450756,5405.908560061071,-342.25462920346763,24.503311244640823,0.39441515944587996
16364.555741642242,10792.894685944451,5571.661055697791,-359.7630471449811,24.688055104114067,0.4042570411833271
15943.837518374381,10214.756588562152,5729.08092981223,-377.4700865037739,24.863048116619627,0.41402338602997313
15562.783614891028,9684.263674529077,5878.519940361951,-395.35874629742466,25.028542314988744,0.42370707151801507
15217.135166778746,9196.794277138166,6020.340889640579,-413.4260254143737,25.18479950701216,0.4333036246568492
14903.13914742097,8748.229757465586,6154.909389955384,-431.668439560337,25.332088469104402,0.4428028237191291
14617.477839875353,8334.886034177525,6282.591805697828,-450.08555682585575,25.470682998804982,0.4521983902686892
14357.21828699202,7953.468777456755,6403.749509535265,-468.676816473715,25.600862440578346,0.46148117329296695
14119.76575205032,7601.032799587614,6518.732952462707,-487.43520025431644,25.72291040364688,0.4706470763045143
13902.820508928226,7274.940901846229,6627.879607081996,-506.35451583657414,25.83711496005323,0.4796944197829755
13704.341724402108,6972.828894756004,6731.5128296461035,-525.4306283533806,25.943762271418468,0.48861196994594996
13522.517088127912,6692.574481998972,6829.94260612894,-544.6553509465884,26.043137731260483,0.4973950476931311
13355.732366894284,6432.268518269617,6923.463848624669,-564.0250991201028,26.135525794810654,0.5060424288437632
13202.549525886807,6190.193143106183,7012.356382780624,-583.5265139359981,26.221209954212853,0.5145477987889688
13061.686183138927,5964.802562546427,7096.8836205925,-603.1440176714677,26.30047028784373,0.5229045276631434
12931.99697123967,5754.702100660805,7177.294870578866,-622.8641255730763,26.3735825971475,0.5311101993024149
12812.457556719262,5558.633068792938,7253.824487926325,-642.6809566441225,26.440817852739713,0.5391629449049372
12702.150261940866,5375.457019529944,7326.693242410922,-662.5903999406146,26.502441635922004,0.5470557680647273
12600.252613403198,5204.14433373732,7396.108279665877,-682.5903781303205,26.558714846107115,0.554789075031884
12506.026991310733,5043.7631259286545,7462.263865382079,-702.6821239439305,26.609892024054815,0.5623601616730052
12418.809996002226,4893.467900873861,7525.342095128364,-722.8628286140738,26.656221652291272,0.5697655098903751
12338.003581126311,4752.489242554414,7585.5143385718975,-743.1311005640309,26.697945588556866,0.5770052960112105
12263.068206348522,4620.126676348226,7642.941530000296,-763.4860670045018,26.73529931367053,0.5840812908397047
12193.515603869928,4495.73983762563,7697.775766244297,-783.92078303569,26.768510985916265,0.5909926983118662
12128.904167034765,4378.744567256288,7750.159599778478,-804.4271369206253,26.797801075176608,0.597737775434198
12068.834688901461,4268.608288138208,7800.226400763252,-824.9970882619964,26.823381552857846,0.604318698494991
12012.945706690803,4164.844022759935,7848.1016839308695,-845.6217761710286,26.84545611635913,0.6107343883348437
11960.908768919864,4067.0048837931154,7893.903885126749,-866.2923581259092,26.864220710068956,0.6169878496246918
11912.425175196075,3974.6806489156443,7937.74452628043,-887.0012877137633,26.87986385941135,0.6230813701679163
11867.223348949867,3887.495291894735,7979.728057055131,-907.741606237134,26.892566386703535,0.6290142416285806
11825.056008695432,3805.103308609644,8019.952700085789,-928.5063262789045,26.902501135756125,0.6347858099247586
11785.697615855828,3727.186505157436,8058.511110698391,-949.2874937255401,26.90983348081683,0.6403990364008999
11748.942064191364,3653.4515842343735,8095.49047995699,-970.0781635699095,26.914721693829698,0.6458548637226185
11714.600595697622,3583.627705309299,8130.972890388323,-990.8715587911429,26.917317031343664,0.6511551958966965
11682.500410727043,3517.464759591236,8165.035651135807,-1011.6601379078347,26.91776382898698,0.6563040655016776
11652.483093683017,3454.7314009241,8197.751692758917,-1032.4359860972036,26.916199976485316,0.6613021238259792
11624.403277424997,3395.2135274746256,8229.189749950372,-1053.1912589415442,26.912756727052347,0.6661517432104649
11598.127470415217,3338.712936700506,8259.414533714711,-1073.9192498845514,26.90755876400352,0.6708557917631922
11573.532766524515,3285.0456367231586,8288.487129801357,-1094.6137084162328,26.900724548022165,0.6754165513571474
11550.505938218666,3234.040478678323,8316.465459540343,-1115.2689364608377,26.892366270190195,0.6798364528908133
11528.942728625374,3185.538358748231,8343.404369877142,-1135.880295247538,26.882590210439055,0.684118192143421
11508.74705278065,3139.3913933726094,8369.355659408042,-1156.4435336665483,26.87149712675123,0.6882639470622517
11489.830121821604,3095.4618652498993,8394.368256571704,-1176.9540620261105,26.8591825812649,0.6922764101896414
11472.10977329754,3053.6213921152525,8418.488381182287,-1197.4075188226998,26.845736937116893,0.6961582688743452
11455.510068205323,3013.750302765248,8441.759765440076,-1217.7995976975653,26.83124551994439,0.6999130459738776
11439.960586464045,2975.736806844039,8464.223779620006,-1238.126034168643,26.815788931260258,0.7035434641832351
11425.395801560348,2939.4762471428257,8485.919554417522,-1258.382779518608,26.79944317595335,0.707052116293181
11411.754782521059,2904.8707012335403,8506.884081287519,-1278.5662598697236,26.78227995914405,0.7104415931796187
11398.980982050134,2871.8286223507152,8527.15235969942,-1298.6732393539278,26.764367000462173,0.7137146918222289
11387.021789549457,2840.264253549842,8546.757535999615,-1318.7007517615566,26.745768223194666,0.716874937600894
11375.828331598015,2810.097334853309,8565.730996744707,-1338.6459601563402,26.726543841968184,0.7199253389561177
11365.355101092788,2781.2526511676615,8584.102449925125,-1358.5059457550524,26.706750524954302,0.7228679339546488
11355.55967910204,2753.659664327466,8601.900014774574,-1378.27754556539,26.686441597475405,0.7257052396607963
