energy,prior,fidelity,mass,psnr,ssim_indices
86294.83278058287,86294.83278058287,0.0,0.0,16.471034211012732,0.3091966320185487
78994.72093038025,78964.67563613152,30.045294248725845,-4.974848877231125,16.894083259869802,0.3198675006452674
72413.10829903046,72298.95469281232,114.15360621814062,-10.08168811223004,17.310567944975066,0.3305649659524683
66489.99964017054,66246.11292684679,243.8867133237475,-15.324938397679944,17.71954769470945,0.3412646230169645
61168.42477986847,60756.8400989637,411.5846809047639,-20.713264794147108,18.120086672701493,0.35194046118993755
56394.509156813605,55784.17465383741,610.3345029762002,-26.244579123565927,18.51127089088546,0.3625742046461256
52117.58638910929,51283.64736325483,833.9390258544587,-31.90775719069643,18.892212344557898,0.37314252709944373
48290.40291525924,47213.526616668285,1076.8762985909573,-37.693788561271504,19.262062557832845,0.38362383449163723
44869.010351623416,43534.749228392335,1334.26112323108,-43.585724295990076,19.620026494447117,0.3939948713229377
41812.70227601865,40210.89421244879,1601.808063569862,-49.599872951046564,19.965376255483534,0.4042374702252738
39083.92310229249,37208.12312842271,1875.7999738697767,-55.734502813371364,20.2974528279691,0.4143363869397208
36648.27400577117,34495.22855861879,2153.0454471523776,-61.99713841138873,20.61567781526683,0.4242762684402415
34474.414199847306,32043.582531181622,2430.83166866568,-68.362912275712,20.919559363927405,0.43403863584188623
32533.883466285522,29826.994234903865,2706.8892313816577,-74.81172341271304,21.208698219292238,0.44361435668159754
30800.988670191102,27821.644667162538,2979.3440030285624,-81.35141405183822,21.482794789144215,0.45298832617428797
29252.609896962364,26005.93066124917,3246.6792357131912,-87.98973772086902,21.741645902134792,0.462148534968049
27868.03265775962,24360.344220675892,3507.688437083729,-94.74599650170421,21.985147651615506,0.4710885407415861
26628.737656921297,22867.28110144996,3761.456555471337,-101.59980795177398,22.21329035464382,0.4798018749273861
25518.265945396623,21510.959773709263,4007.306171687359,-108.54504857765278,22.42615777493482,0.4882828758469993
24521.989708318364,20277.218036804952,4244.771671513411,-115.60145175713114,22.62392122962247,0.4965230398924427
23626.954548196325,19153.391671506608,4473.562876689717,-122.76017556490842,22.806835460614092,0.5045202513406255
22821.714048782123,18128.178003928962,4693.536044853161,-130.0193848629715,22.975230053097615,0.512274487301822
22096.15808100442,17191.49478845921,4904.663292545211,-137.3756050336524,23.129507319014202,0.5197845926309727
21441.369569472852,16334.35166611008,5107.017903362774,-144.83360354747856,23.270123488118667,0.5270516077195113
20849.49208496853,15548.741794937327,5300.750290031203,-152.37550963344984,23.39758093968252,0.5340741762649223
20313.592619064384,14827.522039120007,5486.070579944378,-159.98078777932096,23.512422713943835,0.5408547907207779
19827.554057697926,14164.308840020207,5663.245217677718,-167.65535540261772,23.615226690695682,0.5473976667553094
19385.99164371736,13553.423033196399,5832.568610520961,-175.40777987160254,23.70659116519569,0.5537031035653651
18984.165008975993,12989.809022919497,5994.355986056497,-183.23230975982733,23.78712881484593,0.5597765533019882
18617.89394420174,12468.960286834008,6148.933657367731,-191.12608492968138,23.85745955308586,0.5656196406914661
18283.496155672918,11986.8631128996,6296.633042773316,-199.0802759619546,23.918204998123485,0.5712368804658349
17977.712814691382,11539.928696204719,6437.784118486662,-207.10142145480495,23.969983372406265,0.5766325706288288
17697.659634772273,11124.94873786263,6572.710896909643,-215.17209964664653,24.013399837177186,0.5818088749535142
17440.77650697336,10739.045453618619,6701.731053354742,-223.28655175800668,24.04904349881699,0.5867716061981358
17204.788436316205,10379.634385947364,6825.154050368842,-231.44130971323466,24.07748431744197,0.5915260839751609
16987.678975862236,10044.403044125535,6943.275931736701,-239.62952801107895,24.09926991084874,0.5960765487401675
16787.65442104208,9731.276696845138,7056.377724196943,-247.850726389559,24.11492492795247,0.6004284395866367
16603.115895902425,9438.386310016342,7164.729585886083,-256.1076740017161,24.124950628633677,0.604588723852162
16432.635576936384,9164.047331801,7268.588245135384,-264.39655467221746,24.12981896958895,0.6085610001056008
16274.936780253196,8906.741720200065,7368.195060053131,-272.7116520682466,24.12997343450357,0.6123503743423034
16128.875346073639,8665.097653811386,7463.7776922622525,-281.037577556388,24.12583226140932,0.6159624333648732
15993.425176160294,8437.873377237594,7555.551798922698,-289.3681849554996,24.11778771963349,0.619402628609016
15867.666037739386,8223.944750017656,7643.721287721731,-297.7020274156239,24.10620640164893,0.6226770453056981
15750.769325500089,8022.292139512454,7728.477185987635,-306.04034700396005,24.09143009784335,0.6257910091527145
15641.988524640718,7831.989377107534,7809.9991475331835,-314.3821218845551,24.073776257080056,0.6287495348799595
15540.650561366972,7652.194822958147,7888.455738408826,-322.7213475301396,24.053538518042735,0.6315576512711764
15446.147813539634,7482.1426812914615,7964.005132248172,-331.0493386925664,24.030988158965243,0.6342213252353704
15357.93035277752,7321.134218130239,8036.796134647279,-339.3607056493056,24.006375487065554,0.6367450985934856
15275.499985481609,7168.530705762396,8106.969279719213,-347.64975762559334,23.979931576229248,0.6391345656481882
15198.404332815147,7023.748061620916,8174.6562711942315,-355.91162752720993,23.95186872130758,0.6413947184337124
15126.233527607763,6886.253082702686,8239.980444905077,-364.1454484027927,23.922381063511587,0.643530474611184
15058.61441351741,6755.556867116783,8303.057546400629,-372.34894552617334,23.891646934531558,0.6455468261301127
14995.207353748994,6631.210468252217,8363.996885496777,-380.51829869428184,23.859829488537095,0.6474482127773733
14935.702271264263,6512.800661577892,8422.90160968637,-388.6496160631068,23.827078168118554,0.6492394782648144
14879.815976164755,6399.947169626435,8479.86880653832,-396.74095322418725,23.79352921666318,0.650924802298623
14827.289842712798,6292.300011567721,8534.989831145076,-404.7935663572862,23.759307022418554,0.6525088047590621
