energy,prior,fidelity,mass,psnr,ssim_indices
221334.85331190482,221334.85331190482,0.0,0.0,16.479714421483006,0.30951855025038516
218880.4905108673,218879.493986857,0.9965240102917873,-0.5395612809224986,16.550673530082488,0.3113269236630218
216444.36702969525,216440.39609178458,3.9709379106605205,-1.0897135245031677,16.621753444610043,0.31314362513863564
214026.94329652423,214018.04347878436,8.899817739868054,-1.6489932525437325,16.69294975724666,0.31496898150687597
211628.5004287086,211612.74186110645,15.758567602150867,-2.225853931508027,16.764257173875972,0.3168028519316212
209249.22114535855,209224.69893511522,24.52221024333543,-2.832421288418118,16.835672611061284,0.31864504019249223
206889.3803750687,206854.2152792748,35.16509579389533,-3.4485702128731646,16.907190805240248,0.32049564098369
204549.10716928338,204501.44648054236,47.66068874100466,-4.068940150144044,16.978808343398597,0.32235441943934173
202228.61324240308,202166.63101795927,61.98222444379977,-4.707622002984863,17.05051871578822,0.32422105563280096
199928.2073565705,199850.10569619105,78.10166037943148,-5.360225204261951,17.122318819798558,0.32609598526056466
197648.02101298678,197552.03156780516,95.98944518162418,-6.034117727656849,17.194202314966603,0.32797907992997505
195388.16513813531,195272.54746365233,115.61767448299867,-6.7295052408007905,17.266165865839476,0.32987050817496827
193148.70623415153,193011.74934116603,136.9568929855111,-7.452246619504876,17.338203285097467,0.3317700849975714
190929.77391023253,190769.7955177695,159.9783924630436,-8.205373333534226,17.410311466162185,0.33367776378204356
188731.48450819982,188546.8335593773,184.6509488225282,-8.994991849176586,17.482483554916396,0.33559334193732515
186553.90654607324,186342.96102561726,210.94552045597607,-9.795817149570212,17.554714088685078,0.33751698105970945
184397.1422973302,184158.31295944762,238.8293378825863,-10.6256788810133,17.626995860633187,0.33944863038339085
182261.0833496036,181992.8088076389,268.2745419646876,-11.476344462716952,17.699324265993603,0.34138799737856734
180145.82458673138,179846.57542109955,299.2491656318364,-12.36279140599072,17.77169202850126,0.3433351653382383
178051.30164995458,177719.57759457876,331.7240553758141,-13.287424429727253,17.844094337329512,0.34529006479416896
175977.65935987758,175611.9936283566,365.6657315209787,-14.247032837825827,17.916524453695036,0.34725304784836775
173924.79259274673,173523.74832877077,401.0442639759491,-15.239019035652746,17.988976721897437,0.3492237179966982
171892.8563253937,171455.02925287714,437.82707251654597,-16.251325088669546,18.061444681115685,0.3512023006117897
169881.83607037883,169405.85181924122,475.9842511376061,-17.271200881921686,18.13392278980905,0.35318872639272464
167891.75320268984,167376.27305335907,515.4801493307718,-18.34206909383647,18.2064007413108,0.3551827742936135
165922.61228516395,165366.32911514494,556.283170019026,-19.451061995292548,18.27887486718151,0.35718450091673715
163974.45064129404,163376.09280854894,598.3578327451023,-20.60826002858812,18.351336995246395,0.35919395751040323
162047.06532686853,161405.39050787743,641.6748189910959,-21.78266661905218,18.423781592695416,0.3612113647708865
160140.49562916544,159454.29601629698,686.1996128684543,-22.982827125524636,18.496199290776644,0.36323646516597535
158254.73882293896,157522.83444737954,731.9043755594307,-24.188507739512715,18.568585776091716,0.3652690045249863
156389.59793634302,155610.84322840784,778.7547079351814,-25.422317207616288,18.640931082015655,0.3673090858151595
154545.05636971578,153718.33565831473,826.7207114010513,-26.68541080399882,18.71323080702335,0.3693565709593521
152720.9837149987,151845.21196352938,875.7717514693193,-27.998091125802603,18.78547457497893,0.3714117601941236
150917.44997876007,149991.57472516253,925.8752535975343,-29.338427422975656,18.857654633324742,0.3734742752970925
149134.27549104262,148157.27951900268,976.9959720399373,-30.726960302330554,18.929761511298775,0.37554384278222286
147371.49944070046,146342.39488585744,1029.1045548430204,-32.168218104634434,19.00179276993091,0.3776208842743081
145628.96411847405,144546.79857058488,1082.1655478891494,-33.663755213841796,19.073734535938133,0.3797053440173639
143906.65501314265,142770.5017447002,1136.153268442463,-35.1981932677445,19.145582285350894,0.3817973108803803
142204.52299451947,141013.49189117108,1191.0311033484024,-36.79091668664478,19.217324429835344,0.3838964759532241
140522.61502632074,139275.84511763573,1246.769908685011,-38.415397497592494,19.288954352972308,0.3860026374093081
138860.66417682436,137557.33061268477,1303.3335641395797,-40.05166174279293,19.360461004345403,0.38811551685691387
137218.67033535254,135857.97721553626,1360.6931198162906,-41.67528524377849,19.431839724085457,0.39023558634135397
135596.5192848797,134177.7025503188,1418.8167345609138,-43.29826656222576,19.503080251332516,0.39236331259425317
133994.05457465327,132516.378585902,1477.6759887512621,-44.96271600294858,19.574174679309674,0.39449794341491035
132411.10272770308,130873.86766117915,1537.2350665239476,-46.664773615659215,19.645115185133612,0.3966399751815382
130847.48227720415,129250.00578890619,1597.4764882979682,-48.40175708109746,19.715891976763636,0.39878918670944774
129303.1850398964,127644.8194504499,1658.3655894465076,-50.18139034224441,19.786494349219925,0.40094552820081386
127778.15033332648,126058.27866810517,1719.8716652213254,-51.9734938533511,19.85691329184133,0.40310888712850385
126272.15964110481,124490.20056899259,1781.9590721122229,-53.752251205791254,19.927139650443024,0.40527930773307075
124785.07942006763,122940.47150555279,1844.6079145148328,-55.513386469800025,19.997162124576874,0.40745654991314345
123316.68619913395,121408.8994716753,1907.7867274586663,-57.25398633425357,20.066969376962078,0.40964068845894186
121866.98214187442,119895.51109727251,1971.4710446019153,-59.02688845177181,20.13654854813045,0.4118312385336096
120435.73572397267,118400.10128196146,2035.634442011215,-60.76242656970862,20.205893683037992,0.41402839203280895
119022.78428899392,116922.53027638936,2100.2540126045683,-62.51103871833766,20.27498919194152,0.4162324586012074
117627.9208469403,115462.62210935824,2165.298737582054,-64.26704116573092,20.343834535662275,0.4184439545945522
116251.14782096975,114020.3949578947,2230.7528630750403,-66.07180872495519,20.4124063941101,0.4206617340285777
114892.29205985476,112595.71890434844,2296.5731555063285,-67.8934146053507,20.480705853285123,0.42288692387837895
113551.27252147644,111188.5292827818,2362.743238694627,-69.74815099616535,20.548712360695284,0.42511845532523634
112227.87227557333,109798.64167946459,2429.2305961087472,-71.5991059935186,20.616418561649,0.4273563420769915
110922.05050873832,108426.03287939684,2496.0176293414775,-73.48257932899287,20.683805128297458,0.4295999282655307
109633.63586417209,107070.56661385325,2563.0692503188284,-75.40491705562454,20.7508701004725,0.43185055711701015
108362.622167233,105732.25557355686,2630.3665936761345,-77.31606191012543,20.817588105266314,0.4341073791225141
107108.76603753328,104410.88239201253,2697.8836455207534,-79.18555803754134,20.883959245595815,0.43637108450982987
105871.86778450028,103106.27022951358,2765.597554986704,-81.04927700106055,20.94996711430793,0.4386412038867005
104651.80958635485,101818.32359598968,2833.4859903651727,-82.90321684116498,21.015608345360594,0.4409179817666584
103448.42172634348,100546.88889245807,2901.5328338854215,-84.8108115909854,21.080864307696498,0.4432010378380447
102261.57572941553,99291.86866728359,2969.7070621319504,-86.72443160234252,21.14572767233012,0.4454908885588302
101090.989446136,98052.99055033053,3037.9988958054537,-88.7055808432051,21.21018484039624,0.44778714866800456
99936.42904932162,96830.04472862127,3106.3843207003565,-90.69339670136105,21.274231890418474,0.45009001937915044
98797.85574296287,95622.99880722219,3174.8569357406823,-92.69911858421983,21.337846841355457,0.45239902103667945
97675.22674969447,94431.85635325893,3243.3703964355354,-94.69384084799094,21.40101837110221,0.454714255227399
96568.46725772202,93256.54553422754,3311.921723494485,-96.72217269957764,21.463725558766033,0.45703519427454337
95477.15254901892,92096.67145175676,3380.4810972621685,-98.74381789751351,21.525967041895385,0.45936206050425227
94401.38613331536,90952.35040125935,3449.035732056013,-100.82999750465387,21.587725026065865,0.46169432171413266
93340.64937614204,89823.089096774,3517.5602793680446,-102.93398119020276,21.648992789085007,0.4640328317210786
92295.08856372684,88709.02781090591,3586.060752820923,-105.08413290139288,21.70975537981443,0.4663772423369316
91264.21707468765,87609.72309021899,3654.4939844686605,-107.24429474002682,21.769995810068814,0.46872684707424755
90248.03525926021,86525.16521170606,3722.870047554157,-109.47255338198738,21.829704503911383,0.4710823293550166
89246.06298040907,85454.90400960055,3791.1589708085276,-111.73399803135544,21.888867517771974,0.47344355026344614
88258.48810197612,84399.13590888075,3859.352193095368,-114.0656483148341,21.947474419330156,0.4758105054538507
87284.87793254478,83357.44628441584,3927.4316481289434,-116.42880833806703,22.005511034559504,0.47818220768770464
86325.30208717602,82329.91510310333,3995.386984072695,-118.84357319428818,22.062968598136887,0.4805588650166943
85379.6006074823,81316.4045147418,4063.196092740501,-121.30504157347605,22.119832593983887,0.4829399821268441
84447.74851484595,80316.91858193657,4130.82993290938,-123.79803442565026,22.176095845608433,0.4853267301944893
83529.38496550536,79331.09269993837,4198.292265566996,-126.27902948611882,22.231745170453966,0.48771843022588834
82624.59986367513,78359.04050922873,4265.55935444641,-128.7444917881512,22.286761440684245,0.4901141587501601
81732.88921150113,77400.25480410989,4332.634407391237,-131.20208117656875,22.341135685450226,0.4925136749787234
80854.33678346264,76454.84439306727,4399.49239039538,-133.66313605254982,22.394855846129026,0.4949169046788931
79988.4330318527,75522.28689679418,4466.146135058527,-136.20036606799113,22.44791333689303,0.4973245753871372
79135.3616648041,74602.80432194321,4532.557342860893,-138.73789685679367,22.50029949146459,0.4997365223316355
78294.64746405274,73695.90275773754,4598.744706315201,-141.34302691556513,22.551993727673434,0.5021526284598493
77466.49270079004,72801.82453860604,4664.668162183992,-143.99391947867116,22.602996829774405,0.5045722861493069
76650.33639732221,71919.99494835982,4730.341448962397,-146.74399982823525,22.653281673264548,0.5069943964818875
75846.46573736607,71050.73250517841,4795.733232187664,-149.63821084913798,22.7028527002521,0.5094200750825011
75054.53306729492,70193.67664716076,4860.85642013416,-152.65107733686455,22.751683310153837,0.5118476086397755
74274.60077207968,69348.93656727107,4925.664204808608,-155.7597269161488,22.799781761218934,0.514278909541348
73506.16821774458,68515.96762004454,4990.200597700033,-158.92432556359563,22.84712518313517,0.5167117125830472
72749.37913907031,67694.978924792,5054.400214278313,-162.11154588352656,22.893714386334786,0.5191469989290033
72003.89759601533,66885.59605018556,5118.301545829771,-165.33759629685665,22.939524534345907,0.5215833647939202
71269.73340492311,66087.89081508252,5181.842589840593,-168.58628933154978,22.984561022249302,0.5240212805075046
70546.46512709143,65301.36904143021,5245.096085661226,-171.8266888842336,23.02880181219671,0.5264601282066333
69834.04286925106,64526.068186857374,5307.974682393694,-175.06189935992006,23.072251493376292,0.5288998085882768
69132.3032829813,63761.75198614367,5370.551296837638,-178.38532917312114,23.114889788451997,0.5313407321336628
68441.20996325051,63008.480283057535,5432.7296801929715,-181.76899668993428,23.156714302021154,0.5337809123041084
67760.6458822594,62266.05957544893,5494.586306810469,-185.2612527894671,23.19770953230089,0.5362216577216786
67090.41656218647,61534.3894821516,5556.0270800348735,-188.77844044478843,23.23787566654028,0.5386612137110225
66430.37305292037,60813.23013237141,5617.142920548968,-192.37670820934,23.27719590460226,0.5410997069974938
65780.40763809429,60102.57253074717,5677.835107347118,-196.00674744293792,23.31566955585679,0.5435363500490872
65140.41295799373,59402.227875974786,5738.185082018941,-199.68725001404528,23.35327934177077,0.5459705546995212
64510.223108118924,58712.11357034184,5798.109537777084,-203.41615131788421,23.390029480850156,0.5484019006506701
63889.71825805576,58032.05198151559,5857.666276540165,-207.2037846428575,23.4259043995565,0.5508302881497956
63278.73043941829,57361.9314413818,5916.798998036485,-211.10543450928526,23.460903665008715,0.5532554515418181
62677.26649587857,56701.71967306197,5975.546822816596,-215.06886329461122,23.49502337239523,0.5556776420964294
62084.95054029744,56051.07574509624,6033.874795201199,-219.1453278415138,23.528256615860535,0.5580949641073528
61501.844978840105,55410.03845248237,6091.80652635774,-223.3030814951053,23.560600539995878,0.5605076681979143
60927.9306724564,54778.62755852561,6149.303113930793,-227.58345334301703,23.592051785843665,0.5629143949875236
60362.819203316445,54156.432665707944,6206.386537608499,-231.97982718405547,23.62260684108611,0.5653159622283792
59806.60927507513,53543.54733972643,6263.061935348699,-236.46414694353007,23.652273263653747,0.5677112932822829
59259.112803978765,52939.82391453212,6319.288889446646,-241.08411615953082,23.68102998153891,0.5700996738722152
58720.357496612225,52345.251320692616,6375.106175919611,-245.8256337980274,23.708887535080237,0.5724802987216054
58190.20585499881,51759.758311325735,6430.447543673073,-250.69817783118924,23.735827565805693,0.5748525924678037
57668.52385217597,51183.134412574145,6485.38943960182,-255.64678570412798,23.761871421676318,0.5772184320742099
57155.01885257187,50615.166549038055,6539.852303533816,-260.69133165542735,23.786997122278155,0.5795737371348623
56649.69835212875,50055.78365567323,6593.914696455516,-265.8152139054728,23.811226838887478,0.5819206642474561
56152.409209105615,49504.91618067992,6647.493028425701,-270.9834360719542,23.834537235727595,0.5842559030800323
55663.2080652985,48962.541885093546,6700.666180204956,-276.2207289938233,23.856960141253644,0.5865814325661046
55181.78155867428,48428.433234333155,6753.3483243411265,-281.4862755352515,23.878476436308198,0.5888943156528635
54708.272399667774,47902.65575826773,6805.616641400048,-286.87399457994616,23.899117203776285,0.5911969970709912
54242.3884859885,47384.99397248117,6857.394513507332,-292.32781798311044,23.918864448786053,0.5934863449651343
53784.111586177605,46875.35421004256,6908.757376135046,-297.9044913293328,23.93775130863693,0.5957656419941552
53333.307868515825,46373.64489585555,6959.66297266028,-303.64297318446916,23.95574463921112,0.5980299110203132
52889.68874393133,45879.55912379616,7010.129620135163,-309.5265949749155,23.972871353767026,0.6002811837589982
52453.47051157177,45393.325400061956,7060.14511150982,-315.555091651564,23.989107923070563,0.6025161083258423
52024.15461626522,44914.457130603725,7109.697485661494,-321.6882569391164,24.004482925748274,0.6047365423251639
51602.05766710759,44443.24801793478,7158.809649172812,-327.91885696403915,24.018981721741714,0.6069398553091786
51186.74945960118,43979.268431114775,7207.481028486409,-334.19099727174034,24.032626949544678,0.6091257189054814
50778.51201726564,43522.8283814561,7255.683635809539,-340.5873589470284,24.045412108777455,0.6112955743207926
50376.58270085118,43073.11886395352,7303.463836897659,-346.9834940927103,24.057359029254073,0.613447159962916
49981.54639315699,42630.79073106602,7350.75566209097,-353.4123277144972,24.068452218206808,0.6155789740536918
49592.668494493046,42195.029566506535,7397.638927986507,-359.8057143740007,24.07872341913656,0.6176917328215282
49210.513299393635,41766.472213868794,7444.041085524839,-366.3403250137344,24.08815447221228,0.6197845019280912
48834.42442837212,41344.40389498846,7490.020533383655,-372.88296477886615,24.09679175516513,0.6218589888135093
48464.553772044266,40929.008223320736,7535.545548723534,-379.57235654926626,24.10459627311176,0.6239099432510566
48100.687863789724,40520.06621854595,7580.621645243776,-386.1554939253838,24.111625017558048,0.625941491849518
47742.7518047498,40117.46282430068,7625.288980449119,-392.8689619646175,24.117842726302428,0.6279497898793726
47390.541146713505,39721.04938028624,7669.491766427267,-399.4991213250323,24.123300048840104,0.6299360680021745
47044.29779813669,39330.98581584213,7713.311982294565,-406.2101677483879,24.12797202186288,0.6318994912137982
46703.56270296009,38946.92419351673,7756.638509443356,-412.8707159156911,24.131894364115052,0.6338380690482542
46368.273752169785,38568.67200251858,7799.601749651205,-419.5633249064558,24.135051035587715,0.6357531639923824
46038.40973105367,38196.33617449706,7842.073556556608,-426.2470192592009,24.137463116078848,0.6376405340994212
45713.70634152637,37829.48369888894,7884.222642637429,-432.93759137467714,24.139124281885866,0.6395015418193104
45394.508336776955,37468.65752970069,7925.850807076259,-439.57656612916617,24.140057433388517,0.6413350256887345
45080.250173289205,37113.073222343744,7967.176950945463,-446.0757155379979,24.140266640650943,0.643140690350612
44771.409438411196,36763.393250713634,8008.01618769756,-452.65706899785437,24.13976977512211,0.6449173176315951
44467.355432452285,36418.82166225101,8048.533770201276,-459.1073344865581,24.13857589636338,0.6466639213552746
44168.5851801484,36079.99819106049,8088.586989087914,-465.6230064610136,24.136711717932272,0.6483823606470751
43874.577191579876,35746.245058524975,8128.332133054903,-472.0866340123466,24.134160121073887,0.6500683633856312
43585.50116869914,35417.89994918164,8167.601219517502,-478.6441363279009,24.130966025982783,0.6517261856328816
43301.09664863136,35094.510599834015,8206.586048797348,-485.1623624647618,24.127113913853165,0.6533508149362943
43021.365764525144,34776.27987989027,8245.08588463487,-491.74557542050024,24.122641183164532,0.6549493913702774
42745.982395077255,34462.6711123272,8283.311282750048,-498.31453535414767,24.117519665652786,0.6565111367061736
42475.08316089552,34153.99522417109,8321.087936724425,-504.97151934425347,24.11179327501527,0.658045460725163
42208.81217223799,33850.262005349876,8358.55016688811,-511.6170205771923,24.10544638720008,0.6595425890693628
41946.845989235226,33551.244563279084,8395.601425956143,-518.3590708535048,24.09851190125834,0.6610095944041627
41689.05770438959,33256.72505104807,8432.332653341513,-525.1493215311202,24.0909955095937,0.66244179386715
41435.182077308345,32966.50511262232,8468.676964686023,-531.9960211598664,24.082913374730165,0.6638418370399247
41185.44534605,32680.749635897067,8504.695710152935,-538.9131057677441,24.074264626482268,0.6652066978995256
40939.831833608594,32399.510537832597,8540.321295775997,-545.954747365613,24.065078596463923,0.6665390647499051
40698.186303767485,32122.5637233983,8575.622580369183,-553.1721003834973,24.055352831311318,0.6678391798066813
40460.62243392412,31850.067932990667,8610.554500933458,-560.5174481984577,24.04511833366492,0.669104207808394
40227.00709839039,31581.848922955418,8645.158175434975,-568.0680179651827,24.034358855980894,0.6703364062853939
39996.68371770708,31317.281297936737,8679.40241977034,-575.8153046457446,24.02310223856313,0.6715328317960946
39770.28368638421,31056.9381656087,8713.345520775514,-583.646438887692,24.011353574095395,0.6726948027097732
39547.31319351056,30800.392772445754,8746.92042106481,-591.6339881237946,23.999128113520488,0.6738220046104049
39328.25296687489,30548.009279293892,8780.243687580998,-599.723143655574,23.98641674775731,0.6749141069904451
39112.785509426016,30299.626474684712,8813.159034741304,-608.0122005301528,23.97325652924352,0.675970730509595
38900.64967721036,30054.79994995119,8845.849727259163,-616.4372675400809,23.959642724216287,0.6769929862461989
38692.08048373835,29813.990657352017,8878.08982638633,-624.9465739002335,23.945610436832236,0.6779821967359241
