energy,prior,fidelity,mass,psnr,ssim_indices
35283.83617882476,35283.83617882476,0.0,0.0,20.006487403581737,0.16563169907130357
31432.02858734868,31416.186660015595,15.841927333083632,-2.9508669193310197,20.53480843745282,0.1785378431305873
28032.95910637771,27973.401399329246,59.55770704846689,-5.915451976878103,21.056140799784522,0.1922838906743111
25042.25522534131,24916.383069345833,125.8721559954745,-8.90071497822646,21.569145681935,0.20686670701097587
22418.015454065477,22207.93770162049,210.07775244498768,-11.931188242393546,22.072533398784696,0.22226292465621134
20120.950302521793,19812.93682402001,308.01347850178405,-15.01980032902793,22.565085163594006,0.2384283949561726
18114.543558391448,17698.507446516214,416.03611187523296,-18.184968475572532,23.045670161998903,0.2553100981909382
16365.149627379305,15834.155570538263,530.9940568410412,-21.397490100061987,23.513259529807687,0.27284165626191154
14842.03951604901,14191.847695957966,650.1918200910434,-24.660142976936186,23.9669503883346,0.29093402653573214
13517.3284164489,12745.970181996085,771.3582344528149,-27.992844767286442,24.40596957228323,0.30949364412959013
12365.88840876694,11473.272191365832,892.6162174011082,-31.411176357301883,24.829683496458784,0.3284243271415553
11365.246507707654,10352.802950013433,1012.4435576942216,-34.8895437210158,25.237591051198855,0.347618203998604
10495.464846543511,9365.820456488786,1129.6443900547254,-38.41949418213335,25.62930939336944,0.36697407169167656
9739.01085693274,8495.711189860904,1243.2996670718364,-42.01712052949006,26.00457641618409,0.38638071173371885
9080.53443282813,7727.799619160066,1352.7348136680637,-45.69378019290161,26.36324513552962,0.4057305198924812
8506.67374099595,7049.194375064908,1457.4793659310424,-49.461194455681834,26.705255998836833,0.42494154515298854
8005.831274214361,6448.59361674724,1557.2376574671205,-53.323070320271654,27.03063736885047,0.4439304389976806
7567.972788214131,5916.111316827065,1651.8614713870659,-57.287912320607575,27.33950504364043,0.4626254518895918
7184.456307678071,5443.13677609824,1741.319531579831,-61.355626032251166,27.63204062877712,0.48095353507462807
6847.86361267108,5022.191607868766,1825.6720048023135,-65.54952682825387,27.90847846321245,0.4988636699523716
6551.836716784033,4646.7928427032575,1905.0438740807756,-69.85729304759298,28.16909774901457,0.5163102041241123
6290.923678550066,4311.311614150671,1979.6120643993952,-74.25831016810844,28.414217896064564,0.5332530053215173
6060.454146785662,4010.8686112176983,2049.585535567963,-78.74628526583547,28.64420139171515,0.5496669339051746
5856.427281027073,3741.230585642294,2115.196695384779,-83.30486055009533,28.859441304698016,0.5655284926665664
5675.4098055346985,3498.7196527093265,2176.690152825372,-87.92832279403228,29.06035380542338,0.5808259639775284
5514.454724050016,3280.141244872706,2234.31347917731,-92.61622909430298,29.24737542062804,0.5955533557732062
5371.028976707286,3082.7179455424307,2288.311031164856,-97.3652342800051,29.42096137402459,0.6097069615483512
5242.9549935423875,2904.0340710036094,2338.920922538778,-102.17404496515519,29.581578658726283,0.6232924677214849
5128.355509599761,2741.9850973097864,2386.3704122899744,-107.04120476031676,29.72970969480385,0.6363153318422152
5025.6072939065725,2594.731591804001,2430.8757021025713,-111.96231139698648,29.86584590620523,0.6487827847552388
4933.308500129884,2460.6683699152227,2472.640130214661,-116.93365256150719,29.990482588920166,0.6607066159725187
4850.24114119776,2338.3878650240804,2511.8532761736797,-121.9482071622042,30.104119812137235,0.6721031380804044
4775.344257096375,2226.651405430219,2548.6928516661565,-127.00046478078002,30.207257439672446,0.6829892832323471
4707.696120547972,2124.371414071723,2583.324706476249,-132.0874391561083,30.30039189681146,0.6933808926322316
4646.491497651601,2030.5890620683076,2615.902435583293,-137.21213131712284,30.38401269744996,0.703294080323723
4591.027505562411,1944.458421131618,2646.569084430793,-142.37504262145376,30.458605492334744,0.7127461874063045
4540.687455688405,1865.2306669691218,2675.4567887192834,-147.56899975717533,30.524649136621385,0.721754049897772
4494.93024376469,1792.2418528901756,2702.688390874515,-152.7867416284862,30.582610314290577,0.7303350481673773
4453.280347883454,1724.901832975053,2728.3785149084006,-158.02481236602762,30.632943606117017,0.7385062887187465
4415.319154623645,1662.6859719175727,2752.633182706072,-163.28726602721144,30.67609411188966,0.746283723656283
4380.677872406877,1605.127281007382,2775.550591399495,-168.57705484726466,30.712494785823665,0.7536842613883142
4349.030246780614,1551.8084877986375,2797.221758981977,-173.89069532812573,30.74256341125262,0.7607228252251729
4320.086581948468,1502.355567902053,2817.7310140464147,-179.22394999442622,30.766703011600253,0.7674152089647621
4293.588430745243,1456.431521179043,2837.1569095662003,-184.57087707947358,30.78530103203779,0.7737779475273091
4269.306464044461,1413.7339326619112,2855.5725313825496,-189.92468970589107,30.798727809746715,0.7798245894615183
4247.036744400838,1373.991164208191,2873.045580192647,-195.2821433058416,30.80733745050263,0.7855687027457406
4226.597197908322,1336.958525208584,2889.6386726997384,-200.6420989120379,30.811466782337913,0.7910237462193543
4207.824971769974,1302.4151192750949,2905.4098524948786,-206.00410225850646,30.811438010841922,0.7962027245410911
4190.573615405365,1270.1602704745162,2920.4133449308483,-211.36649122528615,30.807557030464203,0.8011187566518706
4174.712049714689,1240.0125336204637,2934.699516094225,-216.7264840711141,30.80011302004447,0.8057835676989976
4160.122302767312,1211.8070454523036,2948.3152573150087,-222.0817308620608,30.789381093849798,0.8102091718196937
4146.698137325042,1185.394095538188,2961.3040417868538,-227.43110799702117,30.775622480486817,0.8144068798952423
4134.3435432745355,1160.6372032453726,2973.706340029163,-232.77387265331345,30.759083959986132,0.8183879020996557
4122.971539973836,1137.4115886615623,2985.5599513122743,-238.10883301973809,30.739997754718907,0.8221613877115521
4112.503509950099,1115.603419915993,2996.900090034106,-243.4340020021191,30.718581464441495,0.8257375104504353
4102.868101679622,1095.108542098675,3007.759559580947,-248.74699197808513,30.695039243005546,0.8291257887745034
4094.000595781396,1075.831601898094,3018.168993883302,-254.04615418810863,30.66956252544226,0.8323347219228125
4085.8421140221394,1057.6851506630123,3028.156963359127,-259.33045243189554,30.642330526188864,0.8353735029586317
4078.3391334245844,1040.5890556302104,3037.7500777943737,-264.59934976461227,30.613510717390756,0.8382501374446164
4071.4428991540826,1024.4697848957655,3046.9731142583173,-269.85272594640264,30.58325925869674,0.8409724533087082
4065.1087336249434,1009.2595677273363,3055.8491658976072,-275.09040212185937,30.55172164049223,0.8435485613409247
4059.2956433575964,994.8958269290107,3064.399816428586,-280.3119394587702,30.51903338288247,0.8459853538544072
4053.9661163597884,981.3208917658205,3072.645224593968,-285.5166675099754,30.4853208028309,0.8482903818566392
4049.0856340762393,968.4814289656545,3080.6042051105846,-290.7039934823988,30.450701541290822,0.8504695038385667
